# sampling_rate=500
time,I,II,III,aVR,aVL,aVF,V1,V2,V3,V4,V5,V6
0.00000,0.000012,0.002987,-0.002741,-0.008906,-0.004547,-0.009916,0.000601,0.013402,-0.004922,-0.006205,0.004898,0.003569
0.00200,0.001101,-0.009250,-0.000275,0.006927,-0.013420,-0.004542,-0.018986,-0.012854,-0.018366,-0.002293,-0.012622,0.002757
0.00400,0.001662,-0.001761,-0.025132,-0.005439,-0.000440,0.001201,-0.015250,-0.004695,-0.009683,-0.007973,0.010715,-0.007986
0.00600,-0.000184,0.009006,-0.005782,-0.001195,0.001172,0.000740,-0.012173,0.000886,0.013741,-0.015299,0.008752,0.001328
0.00800,-0.006226,0.020221,0.007694,-0.012097,0.000836,0.005903,-0.001784,0.006995,-0.000462,0.006902,0.014596,-0.006578
0.01000,0.002267,-0.004362,0.001362,-0.012002,-0.005680,-0.001792,0.009117,0.011660,-0.012981,-0.007659,0.006733,-0.019700
0.01200,-0.004349,-0.000648,0.012678,0.006739,-0.003136,-0.003482,-0.002346,0.015484,-0.003975,-0.002692,0.003843,-0.000939
0.01400,-0.001643,-0.010761,0.000010,-0.004617,0.011820,0.006768,-0.000060,0.006974,-0.003042,0.010924,0.000315,0.006147
0.01600,-0.012532,0.003900,-0.016739,-0.020561,-0.002864,-0.008728,0.001848,0.022779,-0.007910,-0.005780,0.002476,0.005288
0.01800,-0.001340,-0.001572,0.007186,0.004966,-0.010133,-0.000486,0.000586,-0.010172,0.003056,-0.008062,0.010196,0.002330
0.02000,0.001364,-0.005368,-0.001007,-0.020237,-0.011088,0.003968,-0.021027,0.008881,-0.016952,0.008142,-0.007927,0.008238
0.02200,0.001828,-0.014772,0.012688,0.014132,-0.000409,-0.002366,-0.001314,-0.009295,0.011546,-0.004797,0.000069,-0.007441
0.02400,-0.005695,-0.012127,0.012786,-0.001852,0.009931,0.000540,-0.006633,-0.002769,-0.004992,0.000769,-0.003119,-0.002462
0.02600,-0.013173,-0.007364,0.016773,-0.007049,-0.010247,0.003814,0.014410,-0.014001,-0.001424,-0.005573,-0.016924,0.007931
0.02800,0.000425,0.001473,-0.007272,0.004185,-0.005076,-0.000954,-0.010720,-0.011581,0.014068,-0.004266,0.003655,0.000289
0.03000,-0.003705,-0.004267,0.006569,-0.003407,-0.001175,0.000731,0.012154,0.007427,0.004589,-0.004774,-0.013028,0.010167
0.03200,0.010418,-0.000540,0.005705,0.007400,0.008674,0.009756,-0.004142,0.015813,-0.011652,0.009537,0.005783,0.009452
0.03400,0.019591,0.015765,-0.011147,-0.017327,0.008553,-0.009574,0.000316,0.009102,-0.015573,-0.020123,0.003490,0.001205
0.03600,-0.001610,0.001360,-0.008283,-0.015601,-0.001260,-0.009107,-0.015969,0.005803,0.000302,0.005100,-0.008943,-0.005775
0.03800,-0.009096,-0.007837,0.002294,-0.008322,0.003990,0.004042,0.020744,-0.013140,0.009845,0.000197,0.000862,-0.013649
0.04000,-0.003660,0.008515,-0.000467,0.000293,-0.002455,0.012224,0.000303,-0.021175,-0.005904,-0.018539,-0.031460,-0.004406
0.04200,0.014324,0.001608,-0.011350,-0.009951,0.011781,0.002288,0.001024,0.000336,0.001452,0.009260,0.006633,0.003096
0.04400,-0.009393,0.006302,-0.006449,0.010369,-0.012213,-0.000630,0.000496,-0.012335,0.018338,0.015868,-0.003476,0.008701
0.04600,0.004870,-0.024890,0.002915,-0.001209,0.001352,-0.009989,-0.002098,-0.000830,0.013050,0.004665,0.001157,0.016318
0.04800,-0.004423,-0.002595,-0.017738,0.015070,0.010186,0.009982,0.007310,0.002096,0.003375,-0.001142,-0.000771,0.001616
0.05000,0.016295,0.006910,-0.000137,-0.006441,-0.005785,0.016874,0.005714,0.001711,-0.002191,-0.009655,0.000649,0.009855
0.05200,-0.002702,-0.000865,-0.001745,0.000423,-0.015343,-0.001473,-0.007871,0.009923,-0.006384,0.007264,0.016615,-0.001973
0.05400,-0.004745,0.003376,0.000463,-0.010635,0.005219,0.021070,-0.001882,-0.000910,-0.009077,0.004741,-0.011046,-0.009862
0.05600,0.014114,-0.007539,0.011314,0.014519,0.003226,0.006483,0.020247,-0.000808,-0.004507,-0.011925,0.001893,0.016043
0.05800,0.010961,-0.007852,-0.008035,-0.005792,0.003578,-0.001071,0.002895,0.004168,-0.001514,0.001263,0.003594,0.000457
0.06000,0.006447,0.020332,0.006456,-0.000218,-0.016184,0.004896,-0.018690,-0.012848,0.010071,0.008785,0.000082,-0.015759
0.06200,-0.002255,-0.005110,0.006923,0.021775,0.002869,-0.006743,-0.010903,0.000723,-0.000193,-0.009736,0.002797,-0.010124
0.06400,0.012626,0.012358,0.011420,-0.005568,0.005868,-0.000237,-0.003060,-0.002067,-0.011371,-0.012602,0.009629,-0.000482
0.06600,0.003717,0.011802,-0.016741,-0.008695,0.002498,0.005039,-0.002917,0.011658,0.003780,-0.010240,-0.007569,0.009529
0.06800,0.006237,-0.017152,0.014085,0.005101,0.014201,-0.002686,-0.002078,-0.009857,0.027096,0.000196,0.017666,-0.004954
0.07000,0.003284,-0.014821,-0.003203,0.008932,-0.011727,0.011907,0.004278,-0.008991,-0.003238,-0.002583,0.001348,-0.003798
0.07200,-0.006580,-0.001099,-0.009626,-0.013826,0.000331,0.010048,-0.014363,0.001525,-0.004671,-0.007706,0.010430,-0.003573
0.07400,0.016723,-0.005798,0.004526,-0.003230,-0.006705,0.007129,-0.000593,0.007563,0.001406,-0.008736,0.000928,0.002172
0.07600,0.011371,-0.007008,0.000286,-0.018201,0.007372,-0.009529,-0.017081,0.000980,0.012986,-0.013065,-0.008880,-0.005736
0.07800,-0.009462,0.005903,-0.007377,-0.008223,0.006713,-0.006235,0.005336,-0.008101,-0.010141,-0.016118,0.020665,-0.001461
0.08000,0.004319,0.001852,0.002314,-0.000537,0.019985,-0.009036,-0.014541,-0.008465,-0.011317,0.009763,0.010309,-0.007827
0.08200,-0.011978,-0.001332,0.014643,-0.029255,0.006191,-0.009370,0.011463,-0.009084,-0.000773,-0.012712,-0.007615,0.015689
0.08400,0.010179,-0.001747,-0.007952,-0.020023,-0.002989,0.001112,0.000245,0.000799,-0.009087,0.001745,0.001824,0.014780
0.08600,0.020688,0.000953,-0.006895,-0.001761,-0.005107,-0.005970,0.000525,-0.008655,0.008243,0.001425,0.004763,0.000090
0.08800,-0.005206,-0.007103,-0.001587,-0.006624,0.003331,0.001444,-0.012486,0.002490,-0.011196,-0.003643,-0.000629,-0.018789
0.09000,0.003029,0.003940,-0.000777,-0.005406,-0.002722,-0.008244,-0.001535,-0.003666,0.003199,-0.009463,0.004723,0.003440
0.09200,0.000745,-0.001908,0.006344,-0.017834,0.005641,0.003986,0.004022,0.005734,-0.004203,0.000041,0.008790,0.006359
0.09400,0.004274,-0.012605,0.006217,0.010481,0.011156,0.003928,-0.014363,0.011367,0.000911,-0.022633,0.006244,-0.012825
0.09600,-0.010711,-0.003758,0.013582,-0.004948,0.003792,0.019102,0.017180,0.000949,0.000018,-0.009860,-0.004421,0.006394
0.09800,0.006257,0.003747,0.010822,-0.008989,0.000543,0.008968,0.007106,0.012733,0.006454,-0.000288,0.006198,-0.007841
0.10000,-0.014048,0.008505,0.000340,0.001794,-0.015851,-0.001962,-0.004708,-0.006577,-0.020016,-0.000486,0.011601,0.006039
0.10200,-0.003616,0.002603,0.008477,-0.028920,-0.000097,0.007155,0.008137,0.019113,0.013935,0.006045,0.005700,0.010143
0.10400,-0.002954,0.002404,0.009989,0.018233,-0.000422,0.001272,0.003327,0.015579,0.002332,0.017670,-0.006934,0.000457
0.10600,0.000504,0.010724,0.011397,-0.016462,-0.007958,0.005158,-0.005220,-0.013037,0.013070,0.007973,0.007716,-0.002393
0.10800,0.012822,0.000513,0.011927,-0.010510,-0.007326,0.003870,-0.005630,0.008983,0.005336,-0.006140,0.003565,-0.001107
0.11000,0.011737,-0.003360,-0.003412,0.010694,0.023624,0.021847,0.002051,0.004458,0.018120,0.001902,-0.006875,0.003619
0.11200,0.007141,-0.005272,-0.015465,-0.015811,0.007914,-0.005694,0.000030,0.004436,0.009027,-0.000146,0.007928,-0.006407
0.11400,-0.000945,-0.007172,0.012333,-0.001740,-0.006111,-0.001600,-0.000748,0.009356,-0.013071,-0.007113,-0.000789,0.027861
0.11600,0.012275,0.002011,0.008153,0.019079,-0.001033,-0.001707,0.013614,0.007334,0.009649,-0.001766,0.022286,0.019678
0.11800,0.008424,0.010022,-0.019222,0.004857,-0.000614,0.006329,0.008345,-0.000980,-0.013919,0.007051,-0.004318,-0.000676
0.12000,-0.003234,-0.000183,-0.022027,0.010624,0.003883,0.013138,0.021344,0.002699,-0.014989,-0.005510,-0.008921,-0.002349
0.12200,0.003653,-0.016736,0.004510,-0.016675,0.004345,0.000962,-0.001565,0.001784,-0.002312,-0.002639,-0.013628,0.002418
0.12400,0.021359,0.023144,0.014321,0.005461,-0.005371,0.016518,0.001036,0.001866,0.000223,0.004462,-0.001101,0.001920
0.12600,-0.007897,-0.000345,0.023926,-0.002318,-0.000971,0.007447,0.008703,-0.008542,0.001114,0.012781,0.006002,0.004022
0.12800,0.018536,-0.003333,0.001966,-0.006848,0.016341,-0.017362,-0.005054,-0.002655,0.009871,0.009717,0.017307,-0.012894
0.13000,0.010547,0.000565,-0.005500,0.003723,-0.007741,-0.018579,-0.002029,-0.012301,-0.003204,0.007427,0.006527,0.018759
0.13200,0.001091,-0.011782,-0.006388,-0.010892,-0.010696,0.006577,-0.004754,-0.017056,0.010304,0.002653,0.007027,0.003991
0.13400,0.009451,0.003984,0.013553,0.002526,0.005425,0.006355,-0.012843,0.001112,0.000792,0.005899,-0.010077,0.019319
0.13600,0.004224,-0.008456,-0.015880,-0.004562,0.000630,-0.004893,0.002670,-0.003613,0.008951,-0.003366,0.003177,0.012810
0.13800,0.028943,-0.006366,-0.003419,-0.010173,0.009392,-0.009158,-0.003069,0.002543,-0.006302,-0.005637,-0.001143,-0.017939
0.14000,-0.011182,-0.000367,0.002726,-0.003658,-0.016169,-0.002282,0.009784,0.008439,0.002747,-0.004881,0.009978,-0.002680
0.14200,-0.008373,-0.004204,0.015745,0.000376,0.013186,-0.002403,0.011207,-0.003094,0.002011,0.028913,0.011389,-0.001858
0.14400,0.002520,0.007135,0.013384,-0.006744,-0.015797,-0.000372,0.002006,0.004059,0.016804,0.007276,0.011901,-0.007812
0.14600,0.012098,0.024894,0.009028,0.000655,0.003181,0.020333,-0.007391,0.001898,0.008295,0.011612,-0.000544,0.006322
0.14800,0.000699,0.005204,0.000001,-0.013329,0.001458,0.011276,-0.007757,0.000650,0.010404,-0.006455,0.005722,-0.007297
0.15000,0.014898,0.027213,0.021572,-0.004145,0.009107,0.003767,0.002975,0.018603,-0.009356,0.014886,0.003488,0.017460
0.15200,0.005530,-0.002521,0.004161,0.005348,0.002113,0.007514,-0.003205,-0.018120,0.012950,0.011453,0.005578,0.004158
0.15400,0.014186,-0.000174,-0.005612,-0.003988,0.013726,-0.011118,0.014021,-0.003028,-0.006878,0.017265,0.003313,-0.009370
0.15600,0.000515,0.014028,0.013480,-0.006527,0.006032,0.010094,-0.004190,0.007160,0.004112,-0.000355,-0.000327,0.004568
0.15800,0.004880,-0.000387,-0.002519,0.008614,0.004337,0.012149,0.014538,0.009920,0.027656,-0.002664,0.013215,0.001171
0.16000,0.023955,0.023211,-0.017491,-0.012657,0.009234,0.011784,0.010334,0.004040,0.010380,0.013114,0.005266,0.015400
0.16200,-0.015843,0.014103,-0.007775,0.005873,0.000954,-0.004026,0.007453,-0.003171,-0.001835,-0.007435,0.007295,0.011383
0.16400,0.019159,0.008851,0.013871,-0.004731,0.003353,0.012164,0.015495,0.004443,0.007205,0.009285,0.010828,-0.000522
0.16600,0.022567,0.010126,0.009294,-0.015013,0.009486,0.012763,0.002551,0.031022,0.016981,0.032760,0.023353,0.005050
0.16800,0.013429,0.024200,0.007167,-0.008993,0.005418,-0.005664,0.007234,-0.007000,0.022349,0.013785,0.012167,0.014195
0.17000,0.026985,0.013577,-0.008268,-0.024003,-0.008773,0.007798,0.029251,0.010782,0.032713,0.015879,0.030161,0.019848
0.17200,0.033090,0.044429,0.030364,-0.016582,0.017414,0.014522,0.024362,0.027185,0.044703,0.040663,0.055139,0.012175
0.17400,0.042789,0.061433,0.013880,-0.033087,0.019303,0.019144,0.026355,0.064669,0.060865,0.044730,0.042512,0.039420
0.17600,0.070435,0.061235,0.016046,-0.024368,0.037634,0.039743,0.022037,0.037647,0.058232,0.051372,0.075136,0.051071
0.17800,0.081965,0.107409,0.041048,-0.053945,0.045726,0.067128,0.034970,0.058361,0.082228,0.078112,0.101118,0.049241
0.18000,0.084096,0.106743,0.033892,-0.050679,0.048393,0.066382,0.063709,0.062351,0.102776,0.108955,0.107909,0.092614
0.18200,0.104034,0.123716,0.050924,-0.058743,0.047511,0.101869,0.085326,0.084950,0.125223,0.163136,0.134570,0.109705
0.18400,0.127485,0.143589,0.047110,-0.076768,0.069641,0.089306,0.066850,0.101996,0.139435,0.149129,0.143306,0.133506
0.18600,0.146447,0.169253,0.057820,-0.077942,0.067265,0.099729,0.086125,0.114811,0.167618,0.174542,0.152435,0.130757
0.18800,0.144625,0.175707,0.050352,-0.071846,0.064853,0.086279,0.075957,0.113143,0.163108,0.195294,0.176040,0.130450
0.19000,0.146788,0.195359,0.061861,-0.084885,0.084678,0.135703,0.097892,0.137275,0.170310,0.194552,0.166813,0.136103
0.19200,0.152010,0.164736,0.056950,-0.082356,0.096123,0.100559,0.082099,0.131664,0.167977,0.195279,0.164759,0.135698
0.19400,0.126561,0.155151,0.059692,-0.078176,0.058470,0.099209,0.078947,0.130849,0.148472,0.171917,0.141940,0.124306
0.19600,0.146013,0.127430,0.045960,-0.069218,0.058578,0.085400,0.070799,0.114206,0.139402,0.139623,0.143942,0.114793
0.19800,0.108035,0.132809,0.049542,-0.053464,0.049522,0.090969,0.074169,0.111258,0.136491,0.137029,0.125393,0.116088
0.20000,0.081950,0.112051,0.031028,-0.056276,0.028480,0.059937,0.052383,0.093026,0.113164,0.115847,0.105196,0.082527
0.20200,0.081716,0.086871,0.035582,-0.025214,0.036969,0.040965,0.034123,0.053788,0.071937,0.107838,0.089283,0.058606
0.20400,0.067558,0.082778,0.019589,-0.040322,0.025917,0.046782,0.039962,0.065521,0.078028,0.086300,0.081963,0.064584
0.20600,0.031166,0.052137,0.020800,-0.029393,0.031421,0.029860,0.016304,0.055341,0.056853,0.058892,0.061319,0.054777
0.20800,0.037909,0.015097,0.006354,-0.023540,0.006717,0.026826,0.030896,0.025510,0.025911,0.062369,0.034124,0.020444
0.21000,0.027536,0.033190,0.002510,-0.005933,0.007203,0.008885,0.015623,0.029848,0.020833,0.034000,0.027243,0.052145
0.21200,0.011156,0.034820,0.006408,-0.011300,0.015973,0.022074,0.022703,0.019339,0.013697,0.016878,0.025527,0.023138
0.21400,0.027349,0.019558,0.015682,0.007815,0.008065,-0.005231,-0.004440,-0.002614,0.030353,0.007835,0.027291,0.018557
0.21600,0.027252,0.021645,0.002814,-0.007555,0.005699,0.009024,0.000247,0.008561,0.027001,-0.004700,0.013896,0.000525
0.21800,0.009883,0.017613,0.002469,0.003323,-0.012052,0.016839,-0.001624,0.013275,0.010478,-0.016080,0.001414,0.009817
0.22000,0.022287,0.010632,0.005141,-0.017838,0.017550,0.022929,0.003997,0.003740,-0.008903,0.017065,0.034580,0.013581
0.22200,0.018659,0.012346,-0.007562,0.010055,-0.009455,0.002229,0.006100,0.014128,0.010663,0.011215,-0.000870,-0.007173
0.22400,0.006248,-0.000624,-0.010937,-0.015758,-0.002197,-0.014470,-0.010377,-0.011394,0.007906,0.010952,0.026380,-0.009624
0.22600,-0.001352,0.015387,-0.000099,-0.006264,0.019705,0.000536,-0.008568,-0.008379,0.009236,0.009694,-0.007620,-0.004682
0.22800,0.010715,0.011946,-0.004392,0.003270,0.008295,-0.013966,-0.000168,0.008875,0.000066,-0.014841,0.003182,0.012620
0.23000,0.021156,-0.015753,0.028167,-0.014215,0.012139,0.016196,0.012774,0.006206,-0.005834,0.012796,-0.001158,-0.020142
0.23200,0.033657,0.013255,0.020221,-0.012069,0.017252,0.019764,0.018498,0.004512,-0.006227,0.004776,-0.016015,-0.011920
0.23400,0.006319,-0.003704,0.000407,-0.004060,0.021899,0.016864,0.002521,0.016841,-0.001966,0.003218,0.015150,-0.007287
0.23600,0.002648,-0.006955,0.003241,0.013334,-0.004911,0.006174,-0.005982,-0.006710,-0.006486,0.021182,0.029715,0.009996
0.23800,-0.001683,0.013350,-0.001261,0.005000,0.005540,0.006742,0.009086,-0.000973,0.001874,-0.010527,0.001718,-0.009018
0.24000,0.004076,-0.003226,0.003111,0.001495,-0.011550,-0.004157,-0.006396,0.012325,0.023028,0.015253,0.002691,0.019896
0.24200,-0.009575,0.021394,-0.004447,-0.030864,0.029180,0.019788,-0.007258,0.006588,0.003866,0.007813,-0.008599,-0.001527
0.24400,0.010289,0.008678,0.014124,-0.002288,0.026185,-0.003119,0.005679,-0.014227,-0.006473,0.020129,-0.003145,0.010636
0.24600,0.005035,-0.003944,-0.001334,-0.008252,-0.002160,0.011606,0.009633,-0.000800,-0.002966,0.009720,0.005331,0.015653
0.24800,0.032250,0.014980,0.001817,-0.004854,-0.005833,-0.004965,-0.006901,0.001060,0.001881,0.014387,0.002390,0.003437
0.25000,-0.006442,0.023047,0.007251,0.014732,0.010724,0.019029,0.000672,0.012223,0.033255,-0.005232,0.018192,0.022433
0.25200,0.009995,0.014303,0.014994,-0.009884,0.006950,-0.004716,-0.003731,-0.001226,0.004784,0.008554,0.011108,-0.009015
0.25400,0.026095,0.018537,0.009650,-0.006870,0.001884,0.009807,0.007419,-0.012083,0.013886,0.036992,-0.012406,0.015733
0.25600,0.009656,0.005607,0.016301,-0.015365,0.004489,0.019246,0.001208,0.000874,0.007520,0.002595,0.022467,-0.003741
0.25800,0.014883,-0.006066,0.009123,-0.004331,-0.023713,0.004197,-0.007715,0.000636,0.022203,-0.004271,-0.004276,0.020427
0.26000,0.007149,0.022698,0.005590,-0.012347,0.002178,0.016930,0.012952,0.005251,0.006935,0.006111,0.000725,0.025518
0.26200,0.006074,-0.004729,-0.002624,0.004168,0.009476,0.002910,-0.003572,0.005526,-0.010726,-0.006064,0.014934,0.000773
0.26400,0.009898,0.019476,0.008976,-0.003112,0.024781,0.011216,-0.000321,0.012845,0.010721,-0.001427,0.007519,0.004045
0.26600,-0.014129,0.005227,-0.000598,-0.007854,-0.013989,0.000736,0.002940,0.006404,-0.005100,0.013928,-0.005680,0.003482
0.26800,0.019546,-0.000068,-0.002921,0.007662,-0.001005,0.001361,0.005645,0.016178,-0.016026,-0.001033,-0.003484,-0.005321
0.27000,-0.002605,-0.001517,0.005438,-0.012516,0.004219,0.008559,-0.004086,0.006771,0.023442,0.010831,0.000384,0.005199
0.27200,-0.003164,0.009919,0.011186,-0.011798,0.000844,0.015848,-0.001666,0.007391,-0.003748,-0.000785,0.001727,0.027668
0.27400,0.002168,0.001898,-0.003254,-0.005098,0.009563,0.006401,0.024020,0.007645,0.021233,0.010402,0.013065,-0.008490
0.27600,0.005031,0.006557,-0.000035,-0.024994,0.011831,0.000665,-0.000915,0.002993,0.004525,0.011759,-0.005653,-0.003324
0.27800,0.009250,0.008751,-0.001356,-0.009228,-0.005299,0.003984,0.015297,-0.004998,0.022085,0.016180,0.002576,0.013858
0.28000,-0.008272,-0.009971,-0.010471,-0.007610,-0.000188,-0.000553,0.004507,-0.015731,0.011851,-0.006401,0.000545,0.001939
0.28200,-0.005133,-0.006316,-0.007618,-0.003655,0.008986,0.010271,-0.006409,-0.002258,-0.002262,0.012342,-0.013173,0.018491
0.28400,0.001624,-0.000393,0.005854,0.006767,0.006532,0.015187,0.004903,0.017992,0.019441,0.006901,0.021641,0.007796
0.28600,0.007383,-0.001723,-0.000412,0.004193,-0.010000,0.011187,0.007069,0.008508,-0.015029,0.006915,0.013779,-0.001441
0.28800,0.007460,-0.016240,0.009205,-0.010231,0.011861,-0.013707,0.010529,0.003401,0.015157,-0.001258,0.001159,0.028653
0.29000,-0.001700,0.000529,-0.000258,-0.013855,0.015072,0.022001,-0.003412,-0.011453,0.018847,0.019135,0.015608,0.017834
0.29200,-0.002034,0.005953,-0.011317,-0.017834,0.012999,-0.001937,0.026448,0.006586,0.000768,0.016081,0.025451,0.011171
0.29400,-0.005488,0.011396,0.016296,-0.008608,-0.004528,0.014977,0.005076,-0.005144,0.003421,0.000597,0.010448,0.007446
0.29600,0.018230,0.014831,-0.013080,0.000371,0.012198,0.009401,0.014000,0.000423,-0.002244,0.017506,-0.003122,-0.015206
0.29800,0.017021,0.000541,-0.000489,-0.017702,-0.010007,-0.006693,0.000116,0.009656,-0.015669,0.015779,-0.004240,-0.004234
0.30000,0.013589,0.007085,-0.012776,0.014700,-0.005337,0.007376,0.005744,0.020106,0.002798,0.018389,0.000208,0.017691
0.30200,-0.000777,0.004259,0.021564,-0.000599,0.004387,0.027354,0.007383,-0.002131,0.014747,-0.003456,0.018958,0.018570
0.30400,0.001167,0.001652,0.004386,-0.003652,-0.006467,0.010646,-0.016626,0.001740,0.003409,0.005681,0.010796,-0.005728
0.30600,0.012829,0.006184,-0.003863,-0.017488,-0.008498,0.008603,-0.005819,0.006753,0.018120,0.018798,0.023382,0.003634
0.30800,-0.003849,0.018258,0.005757,0.007388,0.003472,0.016998,0.012315,0.013326,0.012598,0.012520,0.010173,0.008911
0.31000,0.016990,0.003032,0.020050,-0.004961,0.013256,0.004201,0.001432,0.026560,0.004562,-0.004124,0.000798,0.003562
0.31200,0.028794,0.010396,0.012099,-0.013999,0.007002,0.011929,0.021999,-0.000590,0.013856,0.011861,-0.002106,0.006686
0.31400,0.004920,-0.014565,0.008858,0.001247,-0.000763,-0.007946,0.018954,0.009308,0.018326,0.023320,0.003253,0.015299
0.31600,0.005807,0.008826,0.002267,-0.004533,0.015084,0.007155,0.002983,0.004467,0.012289,0.001078,0.004178,0.007285
0.31800,0.003954,0.009870,-0.002455,0.014753,0.017905,0.011421,0.004751,0.030367,0.013611,0.010859,0.013797,0.012191
0.32000,0.026549,0.014123,0.025722,-0.015665,0.012914,-0.001058,0.025016,0.007646,0.012859,0.024426,0.026492,0.000704
0.32200,0.014486,0.006690,0.008193,-0.010885,0.005125,0.006078,0.006012,0.008330,0.024673,0.037055,0.000794,0.015890
0.32400,0.023928,0.037250,0.001164,-0.016925,0.003097,0.027206,0.016453,0.023122,0.034061,0.031830,0.015945,0.032662
0.32600,0.048796,0.051259,0.027296,-0.013067,0.011116,0.025247,0.040725,0.054592,0.042202,0.044207,0.045047,0.038636
0.32800,0.059598,0.087066,0.015865,-0.053595,0.045371,0.047484,0.040776,0.072677,0.089605,0.088664,0.084932,0.063412
0.33000,0.139193,0.146477,0.035221,-0.066905,0.065561,0.092432,0.085237,0.120836,0.126064,0.147606,0.123510,0.118128
0.33200,0.191684,0.245735,0.073242,-0.125528,0.084563,0.138049,0.092035,0.158681,0.201731,0.235430,0.211341,0.171773
0.33400,0.293384,0.322937,0.103500,-0.170826,0.129183,0.212083,0.140853,0.250535,0.315525,0.344548,0.322166,0.260064
0.33600,0.423265,0.482697,0.158217,-0.243140,0.186418,0.305084,0.242720,0.363909,0.455448,0.494320,0.457488,0.389665
0.33800,0.566810,0.631677,0.223187,-0.296193,0.258550,0.391503,0.312924,0.488526,0.583877,0.694432,0.631644,0.529683
0.34000,0.756934,0.847558,0.272069,-0.403678,0.342783,0.522158,0.408553,0.641961,0.790153,0.914364,0.832691,0.707037
0.34200,0.922303,1.059409,0.363032,-0.504554,0.458722,0.650737,0.501808,0.793187,0.986939,1.123943,1.041569,0.864531
0.34400,1.088624,1.248265,0.406271,-0.610608,0.523121,0.766451,0.599820,0.958152,1.169080,1.317948,1.205357,1.052856
0.34600,1.217113,1.430690,0.473604,-0.680433,0.579085,0.896409,0.694090,1.073529,1.325988,1.511766,1.381555,1.189006
0.34800,1.318691,1.528474,0.490760,-0.707457,0.628405,0.931483,0.727158,1.164071,1.449500,1.612371,1.483193,1.264107
0.35000,1.372852,1.559905,0.526051,-0.741163,0.648392,0.977808,0.746631,1.184990,1.477685,1.641670,1.531539,1.298684
0.35200,1.322563,1.514363,0.500663,-0.723193,0.642707,0.955784,0.737843,1.159100,1.431718,1.598978,1.489949,1.258850
0.35400,1.224361,1.424409,0.473751,-0.703848,0.590087,0.869982,0.686351,1.105985,1.321612,1.499536,1.373428,1.170599
0.35600,1.091429,1.260603,0.402419,-0.581024,0.511477,0.783959,0.608327,0.961917,1.162396,1.316660,1.210558,1.030222
0.35800,0.922599,1.034881,0.350896,-0.495022,0.442925,0.660677,0.516305,0.806672,0.992590,1.117214,1.038397,0.846575
0.36000,0.739398,0.832954,0.273292,-0.409312,0.330070,0.519317,0.392745,0.644330,0.769981,0.900741,0.816486,0.687769
0.36200,0.541532,0.623048,0.197177,-0.307188,0.263401,0.393237,0.287599,0.480132,0.583584,0.670922,0.633107,0.527445
0.36400,0.386571,0.431909,0.133940,-0.231203,0.194317,0.272935,0.214962,0.336718,0.421790,0.489454,0.429617,0.366808
0.36600,0.248328,0.303596,0.087172,-0.152345,0.109191,0.170517,0.145724,0.251316,0.266949,0.322313,0.289669,0.232552
0.36800,0.147166,0.170093,0.050067,-0.063157,0.052906,0.111762,0.085778,0.126144,0.163422,0.191694,0.169452,0.146609
0.37000,0.074612,0.057514,0.040503,-0.014442,0.042296,0.058868,0.023143,0.058376,0.064977,0.076701,0.085475,0.056259
0.37200,0.003618,-0.013429,0.000285,-0.001805,-0.004687,-0.003657,0.021569,-0.007769,-0.005194,-0.002089,0.017497,0.025688
0.37400,-0.040221,-0.057248,-0.020824,0.034597,-0.030011,-0.016822,-0.009783,-0.037616,-0.040565,-0.045625,-0.033226,-0.051880
0.37600,-0.070398,-0.098294,-0.038917,0.046242,-0.041604,-0.069066,-0.061189,-0.081766,-0.074263,-0.080670,-0.085574,-0.066240
0.37800,-0.119497,-0.132250,-0.040617,0.052068,-0.064777,-0.081345,-0.066084,-0.111245,-0.119610,-0.142114,-0.117835,-0.108664
0.38000,-0.144772,-0.161758,-0.055592,0.071293,-0.072069,-0.094580,-0.071508,-0.111895,-0.170041,-0.176889,-0.162927,-0.132963
0.38200,-0.169734,-0.195126,-0.054951,0.092648,-0.090966,-0.105608,-0.080899,-0.151127,-0.170117,-0.208911,-0.173781,-0.159130
0.38400,-0.192532,-0.215910,-0.077770,0.103398,-0.086810,-0.132484,-0.107043,-0.198974,-0.198335,-0.244056,-0.204202,-0.163970
0.38600,-0.196297,-0.232785,-0.077432,0.108139,-0.101029,-0.149143,-0.118708,-0.163270,-0.215114,-0.233261,-0.225420,-0.188362
0.38800,-0.209811,-0.234695,-0.070815,0.116856,-0.106630,-0.157637,-0.097868,-0.185935,-0.227667,-0.239241,-0.222202,-0.192364
0.39000,-0.215192,-0.219346,-0.076326,0.121629,-0.103086,-0.166206,-0.129507,-0.181785,-0.224176,-0.260062,-0.248259,-0.215055
0.39200,-0.211427,-0.253932,-0.070107,0.126008,-0.071621,-0.141084,-0.120410,-0.191887,-0.259318,-0.259890,-0.234896,-0.188063
0.39400,-0.193132,-0.223251,-0.073578,0.116195,-0.081163,-0.154107,-0.114159,-0.189223,-0.199001,-0.230114,-0.215635,-0.201271
0.39600,-0.183495,-0.215355,-0.069577,0.099992,-0.083708,-0.137310,-0.093328,-0.160584,-0.202973,-0.227093,-0.211858,-0.167825
0.39800,-0.169882,-0.189294,-0.067448,0.077091,-0.071179,-0.130942,-0.085151,-0.142906,-0.197101,-0.213391,-0.192369,-0.167016
0.40000,-0.158212,-0.160948,-0.058024,0.084372,-0.074573,-0.102348,-0.088026,-0.129089,-0.152284,-0.178146,-0.168529,-0.149938
0.40200,-0.122604,-0.139473,-0.049810,0.060661,-0.054229,-0.064665,-0.071379,-0.106000,-0.130449,-0.177287,-0.137956,-0.125132
0.40400,-0.088299,-0.120008,-0.046591,0.053995,-0.047364,-0.079144,-0.056707,-0.103430,-0.112570,-0.116861,-0.094712,-0.089974
0.40600,-0.078377,-0.081423,-0.020625,0.061241,-0.028100,-0.059568,-0.042018,-0.069573,-0.084562,-0.096934,-0.098652,-0.098078
0.40800,-0.068681,-0.091519,-0.022867,0.034126,-0.046499,-0.037733,-0.025412,-0.053570,-0.050245,-0.056880,-0.081460,-0.048499
0.41000,-0.040867,-0.047884,-0.007860,0.017710,-0.027656,-0.040865,-0.032451,-0.040828,-0.063416,-0.065694,-0.044934,-0.043722
0.41200,-0.027433,-0.054844,-0.019718,0.011640,-0.014681,-0.028372,-0.007862,-0.028094,-0.033593,-0.038005,-0.027934,-0.034415
0.41400,-0.008682,-0.018291,-0.006024,0.011366,-0.004352,-0.004178,-0.001493,-0.013759,-0.012731,-0.023102,-0.009770,-0.019177
0.41600,-0.031756,0.000724,-0.003103,-0.005658,-0.007264,-0.016761,0.014950,-0.004707,-0.027572,-0.007964,-0.016312,0.008714
0.41800,-0.014765,-0.027344,-0.000952,-0.001149,-0.006200,-0.024464,0.001937,0.013004,-0.023668,0.006542,-0.010434,0.019464
0.42000,0.005125,-0.000999,0.011344,0.004840,-0.005558,0.007653,-0.004686,-0.017212,0.021142,-0.002563,-0.005234,0.004114
0.42200,-0.011217,-0.008499,-0.003332,-0.007606,0.002821,0.014379,-0.002331,0.008782,0.010745,-0.005498,0.007190,-0.005266
0.42400,0.017590,0.012545,0.002806,-0.017220,0.004496,-0.002665,0.010883,0.004924,-0.000616,0.017736,0.015001,0.000671
0.42600,0.020394,0.007105,0.000242,-0.003587,-0.003315,0.001900,0.003220,0.023023,0.024472,0.008115,0.025930,0.007902
0.42800,0.013888,0.020430,0.006752,0.018607,0.007273,-0.004717,0.018600,0.004752,0.007846,-0.017616,0.021302,0.017763
0.43000,0.019050,0.022503,0.021113,-0.006543,0.014685,0.000525,0.002545,0.020300,0.015856,0.000159,0.016000,0.008678
0.43200,0.003651,0.017957,0.000453,-0.022216,-0.005429,0.026215,-0.008638,0.012646,0.018886,0.020834,0.001004,0.008031
0.43400,0.013920,0.022391,-0.001695,-0.018516,0.016031,0.020060,0.010582,0.004923,0.017581,0.016358,0.022390,-0.000605
0.43600,0.014308,0.013527,-0.006101,-0.005074,0.006659,0.005361,0.011190,-0.002620,0.013661,0.020352,0.017563,0.023253
0.43800,0.001772,0.000772,0.007628,-0.003029,0.027814,0.016090,-0.001159,0.020190,0.006430,0.001958,0.041529,0.016353
0.44000,0.021604,0.022258,0.023614,-0.005109,0.019115,0.000135,-0.005972,0.026986,0.030360,0.022742,0.018450,0.015394
0.44200,0.008298,0.032843,0.012357,-0.003290,0.011048,0.021409,0.013399,0.020812,0.004705,0.023620,0.038874,0.009236
0.44400,0.014686,0.027290,0.015643,-0.002541,-0.008508,0.016519,-0.003051,0.005810,0.022733,0.016530,0.025987,0.046657
0.44600,0.024621,0.026605,-0.002555,-0.015697,-0.002549,0.006805,-0.001650,0.008230,0.016110,0.010550,0.004680,0.002392
0.44800,0.022354,0.021085,0.017029,0.000646,0.005145,0.019527,-0.004607,0.038508,0.031195,0.019584,0.008321,0.020725
0.45000,0.000181,0.013921,0.014663,-0.009631,0.004154,0.023102,-0.000001,0.019463,0.015414,0.014562,0.025782,0.008009
0.45200,0.039078,0.017220,0.027520,-0.021972,0.015687,0.002446,-0.002379,0.019248,0.028438,0.011728,0.034307,0.011079
0.45400,0.022666,0.028354,0.014061,-0.029723,0.026435,0.020992,0.007488,0.008549,0.006121,0.012437,0.029365,0.016875
0.45600,0.011462,0.020924,0.024296,-0.015834,0.005089,0.029906,0.017146,0.020487,0.018522,0.012264,0.013805,0.016834
0.45800,0.022143,0.031553,0.014767,-0.011157,0.013887,0.007449,-0.008161,0.016210,0.016745,0.023168,0.024514,0.010686
0.46000,0.014944,0.028954,0.011056,-0.020887,0.017487,0.016561,0.004128,0.023331,0.046958,0.025031,0.040837,0.038525
0.46200,0.042900,0.023880,0.030763,-0.014191,0.010863,0.017798,0.021371,0.025079,0.028383,0.046896,0.024041,0.016091
0.46400,0.037887,0.041485,0.022323,-0.027198,0.025193,0.026388,0.034101,0.013878,0.034534,0.033770,0.017653,0.021309
0.46600,0.043443,0.032309,0.005000,-0.009012,0.025331,0.033032,0.009798,0.027732,0.045053,0.032690,0.028540,0.038846
0.46800,0.050202,0.028245,-0.012836,-0.033522,0.006473,0.023520,0.025177,0.028964,0.030342,0.043720,0.029110,0.032381
0.47000,0.030770,0.069567,0.022298,-0.028802,0.007880,0.022392,0.004003,0.025419,0.032778,0.054206,0.037382,0.027421
0.47200,0.026599,0.034237,0.014538,-0.024153,0.030544,0.022511,0.032594,0.037774,0.043157,0.028721,0.031903,0.045417
0.47400,0.057020,0.051562,0.023981,-0.027750,0.016946,0.024360,0.033420,0.041304,0.044143,0.049227,0.053771,0.044121
0.47600,0.037990,0.070416,0.020168,-0.025366,0.037002,0.043583,0.024591,0.046113,0.039315,0.050090,0.029264,0.056198
0.47800,0.030834,0.064104,0.010624,-0.037190,0.021963,0.038533,0.033521,0.061557,0.057390,0.069591,0.049812,0.054465
0.48000,0.055108,0.056980,0.019399,-0.030087,0.027627,0.042588,0.024378,0.039739,0.065336,0.048397,0.053822,0.066423
0.48200,0.030517,0.059297,0.028761,-0.048177,0.053624,0.015580,0.046039,0.066252,0.071360,0.068043,0.068071,0.045737
0.48400,0.069959,0.059947,0.020770,-0.024064,0.018553,0.040901,0.035669,0.041024,0.078459,0.078884,0.054134,0.058303
0.48600,0.058659,0.069799,0.026004,-0.043624,0.041523,0.040771,0.046344,0.058006,0.080283,0.075610,0.069329,0.051567
0.48800,0.077014,0.091297,0.048261,-0.026274,0.036690,0.049179,0.043066,0.062409,0.091568,0.096345,0.071415,0.060796
0.49000,0.090007,0.090865,0.026689,-0.030121,0.032765,0.052163,0.037372,0.047558,0.091084,0.081037,0.079808,0.065079
0.49200,0.088986,0.093287,0.031206,-0.061738,0.038349,0.044072,0.048016,0.075577,0.088079,0.120125,0.096799,0.083588
0.49400,0.088802,0.098558,0.042863,-0.037044,0.028930,0.073458,0.053196,0.086500,0.099031,0.094159,0.086135,0.101256
0.49600,0.095847,0.093149,0.038944,-0.054949,0.026361,0.044290,0.035301,0.084842,0.100308,0.111362,0.107368,0.094668
0.49800,0.078520,0.111465,0.029548,-0.067082,0.042310,0.070444,0.052086,0.073053,0.102677,0.141603,0.100945,0.077697
0.50000,0.108794,0.127914,0.044936,-0.069520,0.060881,0.068497,0.046974,0.087232,0.113438,0.136512,0.125005,0.100514
0.50200,0.122134,0.130541,0.051826,-0.076082,0.038405,0.088977,0.048142,0.096253,0.120849,0.132743,0.121807,0.121091
0.50400,0.094532,0.146641,0.068486,-0.065669,0.057328,0.093540,0.084194,0.093568,0.130291,0.144328,0.139801,0.115428
0.50600,0.133695,0.141946,0.048787,-0.076607,0.054364,0.090095,0.068484,0.100121,0.152966,0.153709,0.128513,0.131758
0.50800,0.127120,0.159876,0.050979,-0.071526,0.066320,0.091163,0.074441,0.138782,0.122995,0.164875,0.155105,0.117350
0.51000,0.128624,0.185266,0.050370,-0.057490,0.073675,0.103237,0.083040,0.131599,0.165511,0.177998,0.160853,0.136974
0.51200,0.163773,0.180962,0.047076,-0.088996,0.075430,0.101954,0.078875,0.122665,0.159658,0.187547,0.178236,0.142834
0.51400,0.179111,0.181353,0.092112,-0.077083,0.080981,0.109031,0.058854,0.137808,0.172814,0.212427,0.163569,0.169503
0.51600,0.164118,0.198866,0.037921,-0.090256,0.076545,0.126798,0.092559,0.135212,0.189431,0.210236,0.192594,0.168388
0.51800,0.186043,0.201070,0.052936,-0.110118,0.097514,0.133129,0.097289,0.149683,0.189352,0.213789,0.192670,0.159292
0.52000,0.205188,0.213362,0.063689,-0.113970,0.080845,0.139350,0.108534,0.159336,0.198746,0.220874,0.194492,0.187385
0.52200,0.195862,0.245720,0.065450,-0.107050,0.101055,0.135887,0.091798,0.159591,0.208514,0.237840,0.214246,0.192564
0.52400,0.210704,0.234120,0.076564,-0.112956,0.101883,0.153755,0.111033,0.181183,0.213595,0.230832,0.214860,0.198395
0.52600,0.213903,0.256750,0.080146,-0.106540,0.113758,0.160736,0.109103,0.182455,0.227485,0.245650,0.239308,0.209201
0.52800,0.213264,0.270509,0.079960,-0.121969,0.102292,0.149929,0.124118,0.192104,0.252132,0.272121,0.249618,0.204953
0.53000,0.212516,0.259763,0.077627,-0.115144,0.108492,0.179852,0.132015,0.207815,0.247098,0.278610,0.260391,0.224553
0.53200,0.228050,0.275352,0.115570,-0.130233,0.110319,0.162387,0.114850,0.218826,0.254578,0.289886,0.281823,0.248490
0.53400,0.234640,0.290600,0.098778,-0.129943,0.121692,0.175123,0.149852,0.220469,0.266478,0.309595,0.281739,0.235977
0.53600,0.255025,0.307074,0.100780,-0.139322,0.112287,0.177833,0.127982,0.222627,0.274466,0.286631,0.282148,0.245662
0.53800,0.261423,0.289170,0.111412,-0.149789,0.112413,0.176224,0.142732,0.238416,0.292188,0.318991,0.278984,0.240197
0.54000,0.258530,0.305845,0.083922,-0.145991,0.134860,0.191114,0.151732,0.226015,0.274350,0.319975,0.311167,0.264422
0.54200,0.270404,0.328255,0.101245,-0.136103,0.136816,0.193461,0.159190,0.234227,0.287609,0.320950,0.310545,0.260684
0.54400,0.281350,0.320341,0.121585,-0.159403,0.128184,0.215588,0.169379,0.251655,0.287290,0.338191,0.322105,0.268192
0.54600,0.304463,0.318591,0.116574,-0.165177,0.151913,0.207273,0.169213,0.247776,0.297941,0.341381,0.317525,0.264228
0.54800,0.307335,0.353019,0.114956,-0.172774,0.140575,0.205778,0.176972,0.263050,0.323851,0.356306,0.310657,0.272852
0.55000,0.290145,0.350211,0.115464,-0.173738,0.140744,0.232609,0.156128,0.255975,0.323133,0.360609,0.333182,0.291561
0.55200,0.324156,0.335064,0.116414,-0.168344,0.146441,0.219049,0.165355,0.280056,0.326729,0.373064,0.343653,0.292567
0.55400,0.310157,0.368638,0.118422,-0.169786,0.149181,0.214513,0.163227,0.263942,0.338742,0.373342,0.338676,0.298654
0.55600,0.321630,0.346229,0.137121,-0.173686,0.150811,0.238461,0.174707,0.272376,0.363636,0.375239,0.353369,0.309033
0.55800,0.309653,0.367382,0.125599,-0.152176,0.144840,0.230175,0.182779,0.282718,0.333949,0.394908,0.359867,0.308789
0.56000,0.335068,0.382448,0.127104,-0.174958,0.144417,0.231759,0.180267,0.280893,0.350630,0.386726,0.377947,0.329086
0.56200,0.322675,0.379560,0.121755,-0.166985,0.161104,0.235904,0.177377,0.288643,0.342693,0.405171,0.358619,0.315591
0.56400,0.330082,0.389053,0.124769,-0.170601,0.148594,0.242820,0.178591,0.291274,0.355806,0.410481,0.348044,0.315577
0.56600,0.315441,0.392012,0.105819,-0.191750,0.141846,0.254270,0.168822,0.291878,0.351459,0.385073,0.366659,0.320494
0.56800,0.329518,0.390476,0.122298,-0.182180,0.155205,0.242016,0.201238,0.295220,0.359814,0.398076,0.363570,0.329434
0.57000,0.320584,0.372331,0.125074,-0.186702,0.178781,0.215166,0.186052,0.299029,0.347038,0.398236,0.375837,0.331416
0.57200,0.322215,0.365341,0.135664,-0.167044,0.155731,0.216485,0.196800,0.289664,0.369173,0.403898,0.367434,0.310330
0.57400,0.345238,0.394423,0.104213,-0.191139,0.176412,0.234290,0.168172,0.290888,0.355860,0.402241,0.365368,0.310878
0.57600,0.324403,0.381646,0.116878,-0.183826,0.156461,0.249910,0.184663,0.288390,0.360641,0.405395,0.379316,0.317579
0.57800,0.344745,0.389273,0.123776,-0.183889,0.165693,0.240467,0.178798,0.272820,0.334627,0.402186,0.373732,0.318500
0.58000,0.311176,0.383028,0.117797,-0.174342,0.159710,0.225290,0.172313,0.264432,0.340804,0.377313,0.367307,0.308460
0.58200,0.329844,0.372374,0.115520,-0.172925,0.150033,0.236997,0.179541,0.272333,0.346382,0.391811,0.356111,0.313617
0.58400,0.333923,0.360634,0.116874,-0.196716,0.150771,0.223729,0.152624,0.281662,0.348046,0.379145,0.351081,0.291288
0.58600,0.319963,0.344013,0.115556,-0.152275,0.150438,0.229562,0.170319,0.263113,0.336998,0.385116,0.339591,0.300137
0.58800,0.319813,0.364166,0.100971,-0.178803,0.131398,0.232014,0.175154,0.277512,0.323170,0.363318,0.345017,0.293006
0.59000,0.293358,0.348608,0.121168,-0.163765,0.134519,0.196242,0.163457,0.267316,0.323452,0.364036,0.331215,0.293962
0.59200,0.295454,0.341607,0.102756,-0.168992,0.143708,0.203050,0.150195,0.257169,0.331666,0.363003,0.346092,0.279864
0.59400,0.286528,0.319151,0.104297,-0.144944,0.142297,0.215864,0.166347,0.254778,0.310751,0.354539,0.331097,0.279726
0.59600,0.287807,0.326861,0.099798,-0.158204,0.126371,0.213725,0.134567,0.246762,0.329390,0.341707,0.305485,0.268563
0.59800,0.288682,0.315552,0.110933,-0.150684,0.128650,0.230071,0.152395,0.237322,0.292952,0.340268,0.312975,0.269719
0.60000,0.269783,0.294311,0.107300,-0.150694,0.125957,0.178398,0.141869,0.228898,0.289476,0.312879,0.301082,0.256196
0.60200,0.249475,0.293527,0.090480,-0.134294,0.099840,0.184251,0.126765,0.225075,0.289994,0.311714,0.293337,0.239191
0.60400,0.272126,0.299773,0.107310,-0.152284,0.110300,0.192764,0.137058,0.219824,0.276287,0.295780,0.290787,0.240278
0.60600,0.249378,0.274567,0.098075,-0.141571,0.126945,0.187398,0.143641,0.220400,0.270491,0.271335,0.282285,0.229616
0.60800,0.237224,0.268879,0.075873,-0.135337,0.119997,0.184291,0.123722,0.198882,0.269694,0.279429,0.285364,0.224967
0.61000,0.219002,0.271855,0.103511,-0.139658,0.124951,0.161228,0.140173,0.196692,0.230292,0.282980,0.264443,0.237404
0.61200,0.236545,0.259158,0.080960,-0.125826,0.102320,0.149593,0.117874,0.167547,0.238642,0.267268,0.271285,0.215931
0.61400,0.205926,0.247985,0.067819,-0.121928,0.082474,0.166087,0.121834,0.173685,0.226982,0.266586,0.240967,0.204015
0.61600,0.193552,0.226078,0.077761,-0.101969,0.088734,0.134320,0.122612,0.168572,0.229072,0.249030,0.235197,0.209468
0.61800,0.200436,0.230342,0.064370,-0.113404,0.099343,0.154698,0.120373,0.193490,0.212142,0.238158,0.226837,0.184061
0.62000,0.184392,0.202295,0.080219,-0.112479,0.093931,0.119020,0.112723,0.152527,0.208253,0.209827,0.202820,0.187549
0.62200,0.168510,0.203720,0.062310,-0.120204,0.087831,0.131449,0.086032,0.161113,0.182732,0.205374,0.197820,0.160922
0.62400,0.191144,0.177903,0.071308,-0.082632,0.060953,0.103793,0.098145,0.143218,0.185513,0.216622,0.184685,0.149169
0.62600,0.132716,0.186058,0.051518,-0.084872,0.079121,0.101363,0.105245,0.151642,0.181294,0.183368,0.175137,0.146541
0.62800,0.147813,0.163514,0.062092,-0.081286,0.076595,0.104352,0.096489,0.135603,0.136740,0.178991,0.169626,0.154016
0.63000,0.141086,0.163206,0.048127,-0.072596,0.064689,0.097712,0.071830,0.132368,0.150291,0.159035,0.167611,0.129875
0.63200,0.139997,0.160629,0.063878,-0.064590,0.059735,0.096564,0.062131,0.136829,0.151757,0.180385,0.149608,0.109114
0.63400,0.144298,0.149259,0.050344,-0.070385,0.068357,0.098197,0.055034,0.124372,0.134009,0.152686,0.161732,0.131737
0.63600,0.118387,0.121470,0.047889,-0.061586,0.057644,0.075213,0.059066,0.094604,0.133664,0.156752,0.146635,0.108358
0.63800,0.117155,0.137566,0.038514,-0.064628,0.076345,0.084711,0.071972,0.096680,0.124407,0.122919,0.128331,0.120987
0.64000,0.129089,0.136281,0.047946,-0.058925,0.045888,0.076229,0.065583,0.087276,0.126079,0.122041,0.103279,0.092574
0.64200,0.085008,0.103188,0.049953,-0.057916,0.050984,0.084778,0.068505,0.084417,0.123081,0.127874,0.113895,0.101000
0.64400,0.081242,0.101962,0.035208,-0.046427,0.042119,0.067485,0.062218,0.098155,0.110809,0.129192,0.102914,0.087659
0.64600,0.092796,0.100044,0.028981,-0.032765,0.041002,0.054861,0.054161,0.097217,0.097590,0.121641,0.095988,0.080219
0.64800,0.077110,0.095175,0.050287,-0.057759,0.056696,0.050401,0.043866,0.082285,0.097031,0.105310,0.077595,0.083430
0.65000,0.068462,0.116177,0.027766,-0.041390,0.026302,0.051865,0.030367,0.079058,0.082360,0.101623,0.081282,0.069740
0.65200,0.086525,0.074973,0.009970,-0.036442,0.023936,0.048629,0.049620,0.056620,0.088320,0.083033,0.097388,0.083212
0.65400,0.064166,0.077080,0.017855,-0.035884,0.044554,0.035126,0.047059,0.047375,0.065794,0.066157,0.098196,0.066023
0.65600,0.066840,0.067290,0.035139,-0.056447,0.031175,0.068430,0.031595,0.056837,0.076266,0.070444,0.072348,0.070782
0.65800,0.062117,0.072909,0.019372,-0.029939,0.029441,0.057876,0.040339,0.050516,0.040519,0.080569,0.074947,0.047996
0.66000,0.036235,0.053233,0.030625,-0.041568,0.022390,0.042681,0.043164,0.049291,0.059712,0.063098,0.079271,0.064067
0.66200,0.051569,0.046432,0.012055,-0.023091,0.017995,0.046737,0.032500,0.049144,0.063256,0.069060,0.050270,0.046636
0.66400,0.072468,0.044352,0.013901,-0.016331,0.021961,0.027209,0.013757,0.048542,0.063194,0.073864,0.055496,0.057066
0.66600,0.035530,0.054418,0.010653,-0.023484,0.029520,0.043716,0.015324,0.053031,0.044784,0.045691,0.049656,0.028941
0.66800,0.042925,0.052208,0.014290,-0.018222,0.017435,0.030914,0.009177,0.038161,0.037799,0.047815,0.047088,0.042645
0.67000,0.023653,0.030504,0.012226,-0.017322,0.022860,0.037814,0.035077,0.040270,0.043131,0.038632,0.035474,0.033442
0.67200,0.040246,0.045414,0.014320,-0.022191,0.024339,0.029135,0.023643,0.036147,0.035114,0.035529,0.046991,0.039860
0.67400,0.033023,0.036349,0.036169,-0.026965,0.014732,0.028016,0.007830,0.032169,0.056018,0.052311,0.045772,0.039386
0.67600,0.034184,0.047608,0.011006,-0.022413,0.016891,0.032863,0.021490,0.035842,0.015468,0.052269,0.060438,0.044760
0.67800,0.027909,0.027263,0.014587,-0.026966,0.022177,0.017127,0.026703,0.040976,0.013249,0.040851,0.027832,0.015433
0.68000,0.023101,0.031476,0.021461,-0.031315,0.024560,0.041258,0.022075,0.031221,0.031482,0.023964,0.038136,0.031651
0.68200,0.034938,0.057454,0.017774,-0.010935,0.028878,0.006436,0.003765,0.020555,0.023283,0.040638,0.027762,0.043640
0.68400,0.041323,0.037737,0.006065,-0.008196,0.020647,0.008139,0.017853,0.030045,0.030372,0.047575,0.041394,0.016556
0.68600,0.025997,0.020110,0.015202,-0.022285,0.021114,0.021703,0.023322,0.020331,0.012170,0.047856,0.025997,0.037282
0.68800,0.027817,0.033782,0.027233,-0.009531,0.025290,0.002088,0.021644,0.018275,0.024056,0.028776,0.029802,0.038911
0.69000,0.003860,0.026197,0.001346,-0.000660,0.006520,0.020694,0.008344,0.026390,0.034337,0.023351,0.025576,0.007074
0.69200,0.024444,0.033161,0.002574,-0.000561,-0.010466,-0.003113,-0.002118,0.013975,0.023287,0.025307,0.023286,0.027556
0.69400,0.015763,0.010921,-0.004654,0.009861,-0.013689,0.012985,0.025845,0.022859,0.013827,0.025012,0.031581,0.031541
0.69600,0.010678,0.030226,0.010000,0.000225,0.023346,0.010730,-0.003677,0.021269,0.039011,0.030855,0.024333,0.042698
0.69800,0.008544,0.030816,0.001494,-0.009923,0.009990,0.028786,0.001059,0.011320,0.004530,0.027984,0.016635,0.022217
0.70000,0.007563,0.017446,0.017342,-0.011806,0.015038,0.018456,0.006531,0.000503,0.029613,0.024028,0.030324,-0.002746
0.70200,0.001173,-0.001051,-0.002035,0.000674,0.014165,0.012416,0.011058,0.023200,0.016115,0.025578,0.021245,-0.005038
0.70400,0.013358,0.033375,0.002580,-0.010895,0.002191,0.007542,0.020704,0.012461,0.008364,-0.010122,0.013544,-0.003322
0.70600,-0.001484,0.027218,0.013453,-0.028387,0.016556,0.016656,0.001379,0.022087,0.001827,0.008395,0.004367,0.004801
0.70800,0.025141,0.005470,-0.005299,-0.018511,0.009804,0.008378,0.017618,0.007278,0.004768,0.014910,0.018665,0.006195
0.71000,0.018742,0.036516,0.000198,-0.008438,0.021114,0.004943,0.000220,0.003026,0.021135,0.024530,0.016290,0.015468
0.71200,0.028264,0.026544,-0.008239,-0.008926,0.008375,0.018279,0.006167,0.007116,0.012119,0.001108,0.017055,0.008669
0.71400,0.019807,0.007185,0.001203,-0.018576,-0.003572,0.017778,0.003501,0.017675,0.005118,0.019432,0.000021,0.009499
0.71600,0.009784,0.022907,0.007178,-0.010504,0.015259,0.012436,0.013313,0.020607,0.015315,0.015168,0.019848,0.009828
0.71800,0.018419,0.027861,0.013786,-0.012500,-0.006091,0.009780,0.006533,0.023775,0.011904,0.015735,0.023664,0.009006
0.72000,0.012754,0.033675,0.020032,-0.002328,0.009319,0.000521,0.013248,0.013140,0.017726,0.012421,0.015995,0.011758
0.72200,0.017335,0.030636,0.008706,-0.025083,-0.003122,-0.005728,-0.000331,0.018002,0.019356,0.011428,0.018599,0.005893
0.72400,-0.000126,0.002196,-0.003532,0.005705,-0.006890,0.022384,0.020756,0.010480,0.014711,0.011115,0.015531,0.019875
0.72600,0.014009,0.026030,0.016816,-0.005008,0.009678,0.009258,0.010875,0.001055,0.019105,0.019124,0.007028,0.034657
0.72800,0.004108,0.007284,0.007702,-0.027733,-0.001545,-0.005425,-0.002292,0.010755,0.018130,0.027963,0.023558,0.024899
0.73000,0.019586,0.011174,0.016010,-0.013246,0.000169,0.024984,0.015162,0.014184,0.022353,0.025610,0.001803,0.012050
0.73200,0.001858,0.016980,-0.001862,0.005219,0.011436,0.001551,0.007063,-0.000174,0.015168,0.022212,0.017957,-0.006362
0.73400,0.010220,0.020770,0.007865,0.003250,-0.006625,0.014841,0.000701,0.013816,0.018744,0.023532,0.009488,0.014700
0.73600,0.001838,0.001526,0.010330,-0.008862,-0.009994,0.001069,0.007360,0.027362,0.025077,0.024582,-0.002651,0.011827
0.73800,0.018237,0.019511,0.008915,-0.010640,0.023733,0.024290,0.006206,0.001986,0.035119,0.011032,0.027114,0.031848
0.74000,0.004006,0.018444,0.001269,-0.003149,0.009348,0.028961,0.013027,0.011666,0.025814,0.013802,0.011466,0.035115
0.74200,0.005206,0.010626,0.005174,-0.018853,-0.014954,0.020049,-0.000733,0.006322,0.010810,0.006679,0.004353,0.014320
0.74400,0.037373,0.022858,0.012195,-0.023334,0.005883,-0.002352,0.014825,0.009438,0.014897,0.015587,0.009239,-0.002517
0.74600,0.019181,0.001652,-0.007086,-0.011252,-0.000943,0.012089,0.017201,0.014196,0.016474,0.016692,0.023642,-0.005773
0.74800,0.017050,0.006145,-0.007611,-0.008224,0.002242,0.015300,0.018100,-0.011555,0.013772,0.036035,0.023730,0.027144
0.75000,0.014393,0.001118,-0.006532,-0.001154,0.015702,0.002150,0.004409,0.014316,-0.003008,0.012949,0.031234,0.034534
0.75200,0.012295,0.033788,-0.000532,-0.016372,-0.016267,0.019037,0.003353,0.035101,0.017812,0.018338,-0.003004,0.027686
0.75400,0.009758,0.013872,-0.017337,0.001001,0.016014,0.003422,0.008037,0.015644,0.024144,0.017516,0.032303,0.010278
0.75600,0.007343,0.010837,-0.020632,-0.016318,0.016215,0.012150,-0.001060,0.015239,-0.005648,0.013648,0.020350,0.019706
0.75800,0.005687,0.024660,0.023464,-0.012502,0.013578,-0.006051,-0.012472,0.017891,0.014994,0.018522,0.009296,0.009814
0.76000,0.021571,0.032745,0.002625,-0.024727,0.018940,0.015580,0.013997,0.013615,0.037831,0.017308,0.020298,-0.005762
0.76200,0.007693,0.008715,0.004508,-0.004729,-0.001291,0.026885,-0.003471,0.007300,0.016992,0.004052,0.020877,0.019119
0.76400,0.010572,0.034701,0.005630,-0.005405,-0.003395,-0.007178,0.000879,0.008600,0.010062,0.024273,-0.008699,0.001452
0.76600,-0.004764,0.029039,-0.000837,-0.013375,-0.004805,0.018586,0.003082,0.014052,-0.005723,0.028321,0.019150,0.018339
0.76800,0.025906,0.013704,0.003159,-0.001033,0.010509,0.007156,0.007663,0.006806,0.021821,0.025979,0.015279,0.031656
0.77000,-0.001846,0.013330,0.021990,-0.012436,-0.009772,0.023609,0.012709,-0.000086,0.022454,0.006408,0.001822,0.011341
0.77200,0.008764,0.004690,0.001201,-0.018279,0.006873,0.009417,0.014726,0.007341,0.001362,0.003455,0.012810,0.028283
0.77400,0.022109,0.009285,0.014320,-0.019842,0.016443,0.005823,0.014976,0.018157,0.011951,0.019988,0.004596,0.012162
0.77600,0.024482,0.056820,0.011936,-0.007335,-0.003858,0.020300,-0.009326,0.003885,0.018344,0.004637,0.030764,0.023884
0.77800,0.007942,0.010188,-0.008330,-0.022268,0.010747,0.015948,0.010820,0.014616,0.009151,0.020360,0.000569,0.013021
0.78000,0.028445,0.029049,0.000256,-0.011579,0.020142,0.027643,-0.007711,0.007685,0.017140,0.028995,0.006945,0.019402
0.78200,0.010662,0.039642,0.009231,-0.009582,0.002966,0.020320,0.014138,0.001114,0.016991,0.003349,0.007789,-0.000022
0.78400,0.000386,0.008924,-0.004915,-0.002932,0.014341,0.007338,-0.003905,0.020077,-0.005492,-0.002580,0.022702,0.019581
0.78600,0.023501,0.013673,-0.007732,-0.013353,0.012044,0.002052,0.000291,-0.001989,0.003162,0.025299,0.019980,0.001344
0.78800,0.002883,0.010212,0.010444,-0.019980,0.004665,-0.011779,-0.005274,0.016255,0.023883,0.005238,0.007665,0.021036
0.79000,0.009829,0.010440,0.010160,-0.006283,0.017535,0.017751,0.001582,0.010855,0.014287,0.003259,0.005684,0.022805
0.79200,-0.002164,0.025892,0.007831,-0.009641,0.011793,0.014582,0.019522,0.008056,0.012625,0.014440,0.034382,0.022565
0.79400,0.004526,0.012589,-0.002096,-0.008102,0.008560,0.032839,-0.010905,0.022427,0.019334,0.009902,0.014026,0.008138
0.79600,0.014342,0.026078,-0.010215,0.004953,0.002698,0.024938,0.011580,0.024520,0.020676,0.027882,0.016141,0.004819
0.79800,0.020630,0.023157,0.026104,-0.028289,0.004507,0.020555,-0.005076,0.009913,0.036277,0.031248,0.006806,0.027502
0.80000,0.025804,0.023869,0.008915,-0.005781,-0.002188,0.004779,0.014876,0.013655,0.033631,0.013756,-0.008376,0.009904
0.80200,0.016762,0.019959,0.005812,-0.016385,0.021539,0.003344,0.014692,0.009409,0.003154,0.031302,-0.009407,0.004771
0.80400,0.018361,0.012607,0.012687,-0.009116,0.002076,0.031677,0.005418,0.010759,0.004365,0.009723,0.022279,0.018996
0.80600,0.014105,0.009230,0.012090,-0.025125,0.003244,0.007576,-0.000791,0.013929,0.008587,0.009239,0.033881,0.020840
0.80800,0.026161,0.016830,0.014943,-0.000208,0.018875,0.033872,0.005487,0.015078,0.014842,-0.017793,0.001972,0.013700
0.81000,0.020583,0.010644,0.016725,0.004881,0.002681,0.024501,0.025345,0.017207,0.005620,0.032132,0.014381,0.009810
0.81200,0.015485,0.011101,0.016158,-0.000136,0.019068,0.016136,-0.000054,0.011032,0.024253,0.013439,0.045273,0.011210
0.81400,0.008501,0.028008,0.012936,-0.008180,0.004592,0.014607,0.016256,0.020268,0.012497,0.021844,0.024528,0.021296
0.81600,-0.016485,0.007632,-0.002295,-0.010211,0.008692,0.019566,0.014085,0.011383,0.015760,0.035132,0.009976,0.016704
0.81800,0.030046,0.020009,-0.014966,-0.004166,0.003034,0.009231,0.018425,0.017360,0.012902,0.026477,0.020471,0.014723
0.82000,0.017415,0.019096,0.002078,-0.012513,0.007166,0.000829,-0.004666,0.025685,0.013160,0.017333,0.014783,0.013918
0.82200,0.014645,0.017231,-0.002571,0.001391,-0.000001,0.020730,-0.011259,0.002072,0.025492,0.016108,0.009437,0.017448
0.82400,0.003975,0.017364,-0.016668,-0.012460,0.000428,0.015786,0.016694,0.004153,0.031674,0.011685,-0.004397,-0.010088
0.82600,0.029833,0.015734,-0.000985,-0.015423,-0.003989,0.023921,0.007105,0.030612,0.013609,-0.005882,0.024621,0.010039
0.82800,0.012085,0.032297,0.002859,0.003669,0.006889,0.002888,0.013024,0.006714,0.027895,0.027235,0.016818,0.019832
0.83000,0.020114,0.013882,0.014449,-0.010231,0.013107,0.000914,0.008978,0.016893,0.007741,0.013508,0.010894,0.021051
0.83200,0.007312,0.021070,0.020790,-0.004353,-0.009118,0.011736,0.018430,0.009942,0.026797,0.023915,0.020501,0.011218
0.83400,0.009447,0.014187,0.006222,-0.002652,0.011254,0.007522,0.008725,0.016735,-0.000488,0.010111,0.008358,0.011848
0.83600,0.011872,0.014228,-0.003086,-0.001118,0.009877,-0.005845,0.008253,0.001646,0.032836,0.013289,0.012460,0.014773
0.83800,0.012673,0.016269,0.021150,-0.005561,0.015482,0.021891,-0.001594,0.029836,0.022732,0.027455,0.007799,0.022140
0.84000,0.018840,0.011515,0.028529,-0.002142,0.004762,0.012584,0.017278,0.024274,0.021695,0.030086,0.031164,0.001646
0.84200,0.009876,0.007520,0.006693,0.006631,0.013708,0.000210,0.005260,0.023280,0.010589,0.016972,0.019530,-0.004202
0.84400,0.022548,0.020358,0.011415,-0.017590,-0.000495,0.004709,0.010709,0.013709,0.017194,0.035870,0.029553,0.006834
0.84600,0.008228,0.034105,0.002564,0.005979,0.023177,0.005262,0.005515,0.013844,0.007291,0.008189,0.012499,0.022562
0.84800,0.010296,0.014897,0.001086,-0.021464,0.022040,-0.012729,0.001675,0.018613,0.001982,0.024028,0.029047,0.005448
0.85000,0.016871,0.005867,0.010810,-0.006942,0.009352,0.024359,0.012929,0.026489,0.022288,0.005992,0.019144,0.018945
0.85200,0.000334,0.030315,0.006421,-0.004154,-0.001765,0.011429,0.011220,0.009775,0.016764,-0.003195,0.030160,0.002916
0.85400,-0.007024,0.007385,-0.002608,-0.002408,-0.001938,0.013547,-0.001375,0.035110,0.021414,0.037567,0.006397,0.020695
0.85600,0.005236,0.022774,0.012512,-0.023810,-0.004177,-0.000969,-0.006830,0.005718,0.006347,0.003541,0.017505,0.019495
0.85800,0.001631,0.011399,0.005781,-0.010224,0.000152,0.018769,0.016647,0.019799,0.013841,0.037835,0.033911,0.009997
0.86000,0.013554,0.028834,-0.002318,-0.003954,0.007598,0.003615,0.005842,-0.002730,0.010482,-0.001994,0.039295,0.029060
0.86200,0.027029,0.019958,0.015641,0.004751,0.017274,0.019810,-0.000989,0.017250,0.010545,0.006133,0.005056,0.018255
0.86400,0.025247,0.003234,0.023077,0.006679,0.003277,0.005967,0.007372,0.022750,0.012036,0.006852,0.019882,-0.006701
0.86600,0.016098,0.028477,0.008645,-0.000253,0.011988,0.017848,0.009525,0.004617,0.013599,0.017163,0.029018,0.030197
0.86800,0.018885,0.009353,-0.001719,-0.009948,0.020934,0.013914,0.007520,0.005267,0.024677,0.020802,0.015932,0.014979
0.87000,0.031554,0.015288,0.022466,0.004344,0.007574,0.019414,0.006841,0.004642,0.013184,0.008847,0.021565,0.014101
0.87200,0.020376,0.025169,-0.025617,-0.004969,-0.010962,0.012249,-0.000690,0.013976,0.029528,0.000853,0.018368,0.013179
0.87400,-0.004215,0.023393,0.005931,-0.013176,-0.000158,0.042715,0.004150,-0.005061,0.006575,0.014277,0.012628,0.013183
0.87600,0.004247,0.022339,0.000754,-0.021701,-0.001092,0.006749,0.016580,0.017796,0.012514,0.018151,0.018634,0.034368
0.87800,0.008549,0.021605,0.012859,-0.017630,0.008960,0.012237,0.003401,0.018634,0.026188,0.029267,0.014574,0.015888
0.88000,0.038241,0.005908,0.007818,0.000796,0.008574,0.017168,0.009831,0.020503,0.028739,0.015762,0.018477,0.013445
0.88200,0.010707,0.016758,-0.005714,-0.000664,0.024101,0.027660,0.020867,0.003333,0.031120,0.010832,0.015982,0.032468
0.88400,0.004033,0.025377,0.008418,-0.009634,-0.001680,0.014846,0.003476,0.023434,0.028175,0.004204,0.011469,0.010823
0.88600,0.002943,0.005795,0.006496,-0.010199,-0.009434,0.005246,0.013307,0.000926,0.006705,0.033884,0.029704,-0.002188
0.88800,0.001259,0.020756,-0.006303,-0.010651,0.002576,0.016235,-0.017165,-0.009029,0.003688,0.028156,0.014997,-0.003052
0.89000,0.019707,0.024070,0.003156,-0.011433,0.011469,0.022734,0.009652,0.018334,0.015476,0.014215,0.007391,0.016601
0.89200,0.011783,0.014566,0.014915,-0.003252,0.015798,-0.005112,0.013715,0.007112,0.007885,0.009516,0.028673,0.022324
0.89400,0.007624,0.005636,0.005758,-0.012732,0.023696,-0.003962,-0.010163,0.010460,0.016083,0.019373,0.024102,0.034786
0.89600,0.011377,0.011577,-0.011968,-0.005706,0.015638,0.008052,0.019946,0.013327,0.031133,0.021388,0.006005,0.007692
0.89800,-0.000530,-0.000342,0.008296,0.000552,0.026650,0.010110,0.005776,0.001941,0.025866,0.021957,0.010634,0.020953
0.90000,0.020429,-0.001662,0.013057,-0.006787,0.003197,0.006496,0.025632,0.028397,0.034260,0.006588,0.010048,0.023129
0.90200,0.002738,0.009844,-0.012410,0.010378,0.017742,0.015257,0.010345,0.008873,0.012030,0.024240,0.009484,0.026355
0.90400,0.009904,0.008319,0.018615,-0.009596,0.012667,0.006528,-0.014345,0.018522,0.002549,0.028915,0.001101,-0.004560
0.90600,0.017913,0.021315,0.006705,-0.020296,0.016007,-0.003964,0.003518,0.005175,0.012247,0.026629,0.010276,0.019739
0.90800,0.021785,-0.000040,-0.006025,-0.011998,0.001204,0.013764,-0.011153,0.020268,0.023477,0.016427,0.002794,0.014157
0.91000,0.009475,0.022744,0.004789,-0.000885,0.002795,0.025118,-0.014880,0.002907,0.020947,0.003008,0.023992,0.001941
0.91200,0.015789,0.007938,0.001234,-0.006425,0.006084,0.006884,0.029702,0.013159,0.006346,0.027401,0.024846,0.026343
0.91400,0.032736,0.007699,0.016243,0.003221,0.007138,0.013153,-0.021853,0.007340,0.033932,0.000265,0.011290,0.017000
0.91600,0.020625,0.033415,-0.011978,-0.007751,0.015734,-0.002430,0.007781,0.031933,0.029224,0.023536,-0.009487,0.012823
0.91800,0.018740,0.014022,0.004998,0.022653,0.004996,0.001014,0.010610,0.009934,0.012968,0.017277,0.024401,0.016507
0.92000,0.002867,0.015787,0.010400,-0.012862,0.018633,0.018486,-0.001723,0.016294,0.035910,0.033758,0.016105,0.023114
0.92200,0.008149,0.002640,0.011200,-0.005723,0.012288,0.010472,0.011448,0.007972,0.020811,0.026494,0.016090,0.022285
0.92400,-0.002816,0.009265,0.020105,0.009425,0.009655,0.009690,-0.004488,0.016742,0.023869,0.003352,0.022269,0.019055
0.92600,0.019307,0.005858,0.011080,-0.023174,0.022037,0.012079,-0.003442,0.026563,0.027631,0.011672,0.038728,0.004112
0.92800,0.018038,0.028964,-0.017043,0.001817,0.006507,0.010574,-0.002571,0.016431,0.004999,0.008498,0.012215,0.001886
0.93000,0.030637,0.003859,-0.001882,-0.011364,0.007192,0.018658,0.016383,0.010092,0.012261,0.018540,0.024919,0.021139
0.93200,0.009751,-0.003440,0.027098,0.001311,0.009792,0.014143,0.002987,0.003114,0.012783,0.015971,0.010452,-0.000403
0.93400,0.011794,0.022923,0.000720,-0.007986,-0.013546,0.008666,0.006986,0.000868,-0.001182,0.022320,0.008613,0.019057
0.93600,0.010722,0.023395,0.002283,-0.023275,0.006299,0.007463,0.014782,0.008627,0.012187,0.026806,0.028378,0.021772
0.93800,0.025307,0.021710,0.013377,0.000572,0.011203,0.011378,0.009632,0.037186,0.016260,0.015845,0.013078,0.013849
0.94000,0.017376,0.005862,-0.014131,-0.005261,-0.008892,0.013339,0.009620,0.024670,0.032830,0.021896,0.011186,0.002439
0.94200,0.007020,0.017578,-0.015017,-0.007463,0.007050,0.017200,0.004870,0.014166,0.008771,0.013584,-0.001002,0.015427
0.94400,0.030429,0.018810,0.009336,-0.018034,0.021485,0.003088,0.016236,0.014222,0.006546,0.028501,0.016889,0.015982
0.94600,0.019467,0.016973,0.001892,-0.003559,0.003127,0.011415,0.001543,-0.001748,0.009410,0.013283,0.016888,0.026043
0.94800,-0.001945,0.018478,-0.016438,-0.018681,0.002105,-0.011767,-0.010355,0.014696,0.016924,0.017101,0.008707,0.035746
0.95000,0.013341,0.008576,0.022466,-0.002081,0.003468,0.022694,0.009791,0.019591,0.018498,0.007959,0.026460,0.015811
0.95200,0.004863,0.009572,0.015237,-0.011920,0.007644,0.017315,0.009510,-0.002104,0.022528,0.027632,0.025419,0.030378
0.95400,0.018604,0.024975,0.021578,-0.011136,0.024545,0.028118,0.016059,0.031562,0.024677,0.009445,0.028130,0.017477
0.95600,0.019099,0.018755,0.019282,-0.002707,0.000225,0.015632,0.015523,0.005913,0.011819,0.014426,0.010687,0.017704
0.95800,0.025145,0.036136,0.017634,0.001989,0.018616,0.024129,0.004465,0.020107,0.019387,0.016967,0.012214,0.009166
0.96000,0.012290,0.004868,0.010906,-0.008453,0.008246,0.014166,0.015483,0.007256,0.015105,0.002179,-0.005432,-0.005183
0.96200,0.030341,-0.001045,0.010412,0.006537,0.002609,0.027079,0.026708,0.022630,0.039897,0.024495,0.009485,0.019466
0.96400,0.010569,0.004223,-0.007033,0.014924,0.001827,0.010599,0.001667,0.014631,0.013871,0.014259,0.004756,0.000201
0.96600,0.007649,0.020269,0.026579,0.002423,0.025557,0.015778,0.007515,0.000084,0.016358,-0.003008,0.013941,0.030683
0.96800,0.018448,0.028696,0.002061,-0.021807,0.002600,0.007024,0.020504,0.033151,0.008992,0.014908,0.015550,0.010973
0.97000,0.002778,0.018398,0.009556,-0.004138,-0.004624,0.009901,-0.008903,0.022578,0.006246,0.015799,0.012559,0.008673
0.97200,0.004671,-0.000163,0.023306,-0.005399,0.010138,0.032072,0.007531,0.019011,0.016694,0.030458,0.022107,0.017688
0.97400,0.012745,0.020345,0.017647,-0.028696,0.006221,0.006932,0.005560,-0.006249,0.023823,0.010154,0.014842,0.009525
0.97600,-0.001383,0.013104,-0.012395,-0.017344,0.004371,0.011076,0.009127,0.012145,0.037897,0.022974,0.004904,0.008450
0.97800,0.008753,0.015803,-0.000004,-0.016470,0.024021,0.011569,0.005209,0.011007,0.014361,0.032558,0.021915,0.025815
0.98000,-0.015838,0.020858,0.016636,0.011825,0.007842,-0.006018,0.014490,0.007562,-0.001363,0.012469,0.027718,0.026627
0.98200,0.022594,0.007153,0.031238,-0.019596,0.006797,-0.003267,0.021803,0.018051,0.025480,0.019608,0.016523,0.016399
0.98400,-0.003438,0.027649,0.015248,-0.011814,0.007501,0.014240,0.024388,0.017979,0.017100,0.013696,0.002250,0.008765
0.98600,0.016275,0.015313,0.006939,-0.000438,0.012058,0.014093,0.015333,0.015632,0.016490,0.023618,0.000132,0.027367
0.98800,0.002859,0.026418,0.006408,0.003144,0.008167,0.002045,0.019626,0.015787,0.018187,0.019957,0.027633,0.023202
0.99000,0.018383,0.002912,0.002388,-0.006998,0.025943,0.015580,0.008170,0.026194,0.016239,0.019256,0.019552,0.000356
0.99200,0.026218,0.023319,0.003835,-0.019737,0.010412,0.026143,0.002994,0.004107,0.022147,0.004237,-0.003618,0.011412
0.99400,0.010688,0.017376,0.001521,-0.005478,0.006532,0.006841,0.005360,0.021874,0.028552,0.030394,0.026623,-0.016222
0.99600,0.009140,0.018802,0.009702,-0.025807,0.023728,0.017000,0.004598,0.018578,0.017195,0.015665,0.026466,0.013711
0.99800,0.007544,0.018470,0.007460,-0.021776,0.023328,0.004880,0.029768,0.028092,0.013947,0.027615,0.036030,0.018723
1.00000,0.013559,0.030339,0.029983,-0.027935,0.018122,0.018644,0.013145,0.018633,0.024314,0.041370,0.034477,0.014313
1.00200,0.046673,0.022679,0.018865,-0.014203,0.027270,0.026148,0.027982,0.027216,0.043273,0.041250,0.056257,0.022642
1.00400,0.050798,0.049225,0.016976,-0.025925,0.023504,0.013450,0.008019,0.041413,0.026376,0.061637,0.040711,0.039470
1.00600,0.049886,0.060599,0.016343,-0.029547,0.022717,0.046086,0.038701,0.056078,0.056673,0.057790,0.038161,0.053161
1.00800,0.070460,0.067217,0.032123,-0.020063,0.031128,0.055463,0.037553,0.037355,0.062238,0.071445,0.074711,0.050363
1.01000,0.073043,0.079308,0.029514,-0.040701,0.047313,0.063937,0.044579,0.070646,0.084655,0.095427,0.102101,0.048740
1.01200,0.092929,0.111901,0.047757,-0.061826,0.049319,0.077009,0.047971,0.064329,0.098602,0.103340,0.112466,0.081482
1.01400,0.130609,0.131023,0.035290,-0.065892,0.043625,0.085330,0.077301,0.097205,0.131015,0.128027,0.129328,0.130241
1.01600,0.116345,0.162168,0.061767,-0.089325,0.048649,0.084342,0.081754,0.110555,0.139095,0.165991,0.147132,0.126172
1.01800,0.142662,0.178881,0.048126,-0.062296,0.067034,0.097261,0.087035,0.132962,0.137670,0.179998,0.149773,0.130308
1.02000,0.165501,0.172540,0.063912,-0.089346,0.095371,0.112729,0.075265,0.127737,0.161098,0.193388,0.176390,0.159436
1.02200,0.166032,0.190191,0.066117,-0.090629,0.082158,0.126342,0.098517,0.139238,0.159739,0.192244,0.186774,0.131243
1.02400,0.160544,0.194486,0.057565,-0.101112,0.097199,0.133022,0.088595,0.158737,0.191423,0.190187,0.211819,0.147649
1.02600,0.157708,0.173342,0.062062,-0.100433,0.077179,0.126410,0.090558,0.138492,0.188536,0.186476,0.189143,0.149278
1.02800,0.152202,0.172780,0.058618,-0.082244,0.064458,0.102470,0.087146,0.130984,0.150330,0.175831,0.160998,0.141951
1.03000,0.137336,0.156718,0.045241,-0.073689,0.051588,0.068853,0.074165,0.102752,0.136831,0.153144,0.157968,0.116608
1.03200,0.121128,0.131173,0.032814,-0.080338,0.061569,0.089126,0.072930,0.122438,0.130437,0.147043,0.131184,0.113402
1.03400,0.096619,0.106155,0.058100,-0.073373,0.050673,0.076528,0.056612,0.078451,0.106122,0.117401,0.101267,0.094553
1.03600,0.078249,0.089126,0.038152,-0.055751,0.043924,0.053140,0.049528,0.073077,0.091227,0.090533,0.084347,0.069551
1.03800,0.067859,0.083499,0.035882,-0.041415,0.032552,0.031418,0.014177,0.049492,0.064713,0.065110,0.056241,0.068066
1.04000,0.044255,0.043347,0.042951,-0.027216,0.021830,0.044323,0.021071,0.061761,0.041038,0.050677,0.057095,0.041921
1.04200,0.055090,0.031218,0.008150,-0.020547,0.025152,0.039424,0.025836,0.057982,0.039524,0.051765,0.054421,0.035714
1.04400,0.029451,0.032641,0.005669,-0.029575,0.009811,0.007740,0.021398,0.012524,0.055499,0.056432,0.047228,0.028545
1.04600,0.020191,0.042202,0.011431,-0.009405,0.005088,0.029228,0.006135,0.023892,0.010873,0.025284,0.034153,0.020172
1.04800,0.017189,0.032812,0.007190,-0.000282,-0.013951,0.021088,0.016714,0.003579,0.010449,0.035221,0.013631,0.014159
1.05000,0.024682,0.018300,0.011542,-0.019747,0.011670,0.024107,0.013294,-0.005451,0.026736,0.023522,0.011997,0.031618
1.05200,-0.000481,0.038158,-0.000217,0.005563,0.007381,-0.001245,0.009987,0.018091,0.023664,0.031271,0.010031,0.020905
1.05400,0.023103,0.015506,-0.003669,-0.019033,0.014747,0.019154,0.000169,0.000473,0.029400,0.003880,0.019302,0.006921
1.05600,-0.002363,0.018698,0.003505,0.005159,0.029579,0.008850,0.018267,0.023630,0.011152,0.009925,0.033016,0.010688
1.05800,0.014492,0.014146,0.003931,-0.014990,0.014238,0.022960,0.004144,-0.000826,0.016474,0.003310,0.010218,0.026228
1.06000,0.037653,0.020563,-0.005418,-0.001111,-0.015662,0.003408,0.022912,0.020155,0.002026,0.001326,0.024877,0.013324
1.06200,0.008547,0.020809,-0.000569,-0.027941,0.014692,0.003801,-0.002285,-0.000618,0.018142,0.009748,0.022467,0.011043
1.06400,0.025156,0.012802,-0.001379,-0.028386,-0.004309,0.017381,0.038072,0.000155,0.005278,0.021059,0.020951,0.006922
1.06600,0.015164,0.000626,0.002158,0.000193,0.022876,0.008534,0.005084,0.017095,0.026595,0.022520,0.008710,0.017189
1.06800,0.024003,0.009521,-0.008168,-0.003685,0.010262,0.019818,0.008549,0.006181,0.011231,0.007435,0.006761,0.008062
1.07000,0.009575,0.027708,-0.007060,-0.009198,0.000780,0.025024,0.010298,0.008901,0.023704,0.018355,0.011469,0.028938
1.07200,0.021482,0.033852,0.016683,-0.000971,0.007989,-0.000530,0.014779,0.013368,0.022349,0.017641,0.009377,0.003701
1.07400,0.021400,0.029529,0.002353,-0.004122,0.020463,0.001992,0.004375,0.001551,0.027376,0.020354,0.011672,-0.002724
1.07600,0.012684,0.026621,0.002305,-0.012821,0.013104,-0.001933,0.008304,0.018644,0.007941,0.009534,0.018745,0.012766
1.07800,0.012152,0.018788,0.007477,-0.017766,0.000142,0.014793,0.018942,0.026167,0.007297,0.028652,0.023833,0.013477
1.08000,0.019364,0.024988,0.023037,-0.019006,0.012757,0.008983,0.005789,0.024131,0.023850,0.007753,0.013525,0.016062
1.08200,0.000540,0.025342,0.004585,-0.006895,0.010144,0.028295,0.008225,0.009235,0.032978,0.012867,0.011150,0.000085
1.08400,0.025264,0.019486,0.010010,-0.006839,0.005496,0.002633,0.000152,0.017063,0.016988,0.033993,0.008841,0.009015
1.08600,0.004476,0.030442,-0.006836,-0.000826,0.021079,0.009032,0.015065,-0.008242,0.011951,0.001454,0.018072,0.013935
1.08800,0.006980,0.026156,0.008891,-0.013614,0.001795,-0.004105,0.006072,0.033763,0.008757,0.022024,0.010957,0.021799
1.09000,0.018942,0.014516,-0.012240,-0.013502,0.018736,0.008027,0.014133,0.008068,-0.002660,0.022081,0.019546,0.008141
1.09200,0.010933,0.019688,-0.000463,-0.004989,0.004869,-0.012857,0.006497,0.006921,0.007519,0.021849,0.011559,0.019200
1.09400,0.025409,0.018244,-0.009895,-0.015621,0.015916,0.007900,-0.000040,0.011942,0.020777,0.020442,0.022782,0.005726
1.09600,0.011900,0.014350,0.005208,-0.029081,0.004573,-0.002790,0.021690,0.028228,0.032428,0.025897,0.011610,0.023376
1.09800,0.012644,0.022898,-0.003479,-0.014147,0.011524,0.028008,0.007722,0.035141,0.043070,0.005232,0.016154,0.004495
1.10000,0.013267,0.011585,0.004797,0.001218,0.016227,0.013071,0.008012,0.014047,0.017095,0.023588,0.016487,0.018889
1.10200,0.001707,0.024716,0.022750,-0.006481,-0.007018,0.023870,0.004741,-0.016670,0.013690,0.023912,0.020241,0.026197
1.10400,0.020802,0.018116,-0.014054,-0.019294,0.008745,0.017222,-0.002153,0.006839,0.020502,-0.000967,-0.002811,0.011655
1.10600,0.017158,0.012144,-0.017203,-0.008034,-0.006172,0.016994,0.007011,0.015508,0.022198,0.012712,0.024630,0.026235
1.10800,0.018587,0.030041,-0.000706,0.000813,0.009640,0.000758,0.007236,0.007645,0.010381,0.018778,0.026953,0.010785
1.11000,0.015895,0.002345,0.006557,0.003180,0.014998,0.015225,0.002800,0.003238,0.014916,0.004665,0.004219,0.023256
1.11200,0.005572,0.034653,-0.008651,-0.003977,-0.004627,0.012248,-0.002292,0.013286,0.014289,0.013432,0.021496,0.028860
1.11400,0.008790,0.025620,0.006332,-0.008531,0.028689,-0.010986,0.001260,-0.005059,0.012721,0.015622,0.054163,0.017338
1.11600,0.032420,0.029710,0.001127,-0.003483,0.023499,0.012221,0.010066,0.017846,0.000913,0.009833,0.019739,0.019301
1.11800,0.005522,0.013631,0.004264,-0.009731,0.013823,0.011544,0.009626,-0.001175,0.005353,0.021043,0.000576,0.016542
1.12000,0.008044,0.008752,0.011876,-0.014960,-0.001586,0.003759,0.008519,0.040059,-0.005271,0.017615,0.013935,0.023268
1.12200,0.010871,-0.007769,0.018564,-0.019114,0.006274,-0.003182,-0.002979,0.007819,0.024204,0.026117,0.010333,0.018749
1.12400,0.010788,0.017804,0.006892,-0.002175,0.000709,0.009037,0.010007,0.013593,0.007717,0.034799,0.011639,0.021239
1.12600,0.016464,0.028779,-0.016383,0.012013,0.004664,-0.001927,0.009090,0.035086,0.020624,0.005421,0.011585,0.026951
1.12800,0.000458,0.014818,0.002365,0.013152,0.003858,0.023337,0.001053,0.004651,0.025551,0.023816,-0.001011,0.020016
1.13000,0.020771,0.010488,0.007462,-0.005713,0.001912,0.004455,0.001100,0.009914,0.002345,0.017180,0.001285,0.014377
1.13200,0.013516,0.006272,0.013719,0.010832,0.019877,-0.003325,0.020389,0.014758,0.014998,0.011664,0.016040,0.027397
1.13400,0.019738,0.012424,-0.001411,-0.012536,0.012525,0.028749,-0.002768,0.012549,0.011681,0.010084,0.020038,0.019064
1.13600,0.000257,0.006243,0.017079,-0.005258,0.011869,0.005241,0.003950,0.017107,0.010562,0.006541,0.016079,0.022557
1.13800,0.004097,0.026985,0.012180,-0.016954,0.006764,0.009794,0.013995,0.019155,0.002580,0.004183,0.026266,0.014700
1.14000,0.018442,0.019815,0.020394,-0.020349,0.017480,0.002103,0.014921,0.025826,0.001795,0.021522,0.013324,0.010703
1.14200,0.014745,0.006117,-0.004302,-0.001900,0.015059,0.004602,-0.006670,0.035469,0.026368,0.021105,0.005899,0.007832
1.14400,0.016771,0.007090,0.021089,-0.007082,0.010603,0.000088,-0.001211,0.004822,0.018279,0.014990,0.013287,0.016748
1.14600,0.016737,0.031378,0.003363,-0.018500,0.006674,0.024783,0.002373,0.013214,0.012180,0.021773,0.018830,0.005789
1.14800,0.012619,0.026417,0.016223,0.000384,0.015453,0.007335,0.004447,0.022189,0.004554,0.017647,-0.001567,0.010381
1.15000,0.008728,0.006224,0.011447,-0.016363,0.003740,0.008660,0.001237,0.027732,0.012101,0.021131,0.004762,0.010226
1.15200,0.014219,0.017042,0.000669,-0.008666,0.023495,0.011135,0.008057,0.011440,0.043729,0.037148,0.025000,0.023435
1.15400,0.013933,0.022589,0.009814,-0.010819,0.001463,0.007312,0.016418,0.021430,0.001925,0.026487,0.035935,0.013520
1.15600,0.030007,0.017574,0.018483,-0.026626,0.000834,0.016714,0.038319,0.018307,0.017511,0.038335,0.033259,0.042518
1.15800,0.027488,0.030332,0.011891,-0.018722,0.022510,0.039302,0.007177,0.027013,0.041859,0.057016,0.049427,0.033787
1.16000,0.051073,0.078944,0.032336,-0.007460,0.027421,0.059817,0.021604,0.048391,0.059360,0.070047,0.059867,0.052692
1.16200,0.095016,0.105517,0.042594,-0.053833,0.045695,0.083155,0.055508,0.085566,0.103032,0.117253,0.112673,0.082903
1.16400,0.159797,0.186308,0.067581,-0.086992,0.055560,0.102615,0.083093,0.138828,0.158703,0.178360,0.181345,0.134575
1.16600,0.235935,0.268230,0.072479,-0.121749,0.102628,0.152984,0.105765,0.183052,0.247620,0.271365,0.255266,0.203794
1.16800,0.327301,0.377391,0.110253,-0.198480,0.162774,0.239281,0.172472,0.289761,0.363391,0.421143,0.361434,0.319947
1.17000,0.485467,0.535114,0.190786,-0.281380,0.237107,0.334412,0.237074,0.416553,0.512199,0.578859,0.532270,0.441172
1.17200,0.617747,0.714364,0.237008,-0.340266,0.295168,0.450451,0.352258,0.553222,0.697599,0.783813,0.688865,0.588242
1.17400,0.789768,0.911621,0.310166,-0.451623,0.374827,0.575148,0.449160,0.702774,0.863334,0.988261,0.903589,0.766942
1.17600,0.992000,1.120202,0.375357,-0.547158,0.481623,0.715469,0.530091,0.877876,1.049852,1.210444,1.102665,0.924977
1.17800,1.135565,1.315592,0.435273,-0.638045,0.555730,0.811668,0.630402,1.008941,1.219897,1.401906,1.271750,1.064641
1.18000,1.268258,1.463235,0.492947,-0.706109,0.626008,0.931570,0.711487,1.134373,1.379712,1.549220,1.433629,1.220096
1.18200,1.351128,1.548723,0.496900,-0.735631,0.650722,0.958206,0.742671,1.194007,1.455624,1.653295,1.518101,1.266761
1.18400,1.356387,1.568085,0.525408,-0.734207,0.633415,0.977999,0.754571,1.208276,1.484780,1.649258,1.518838,1.280973
1.18600,1.312421,1.486975,0.507150,-0.708615,0.630740,0.917606,0.710563,1.155184,1.394724,1.589000,1.459871,1.247901
1.18800,1.194145,1.372814,0.448175,-0.655667,0.570363,0.864879,0.653332,1.058561,1.269908,1.465373,1.332667,1.142911
1.19000,1.036301,1.199287,0.408045,-0.575472,0.497653,0.743772,0.571425,0.895176,1.116641,1.260880,1.151995,0.981756
1.19200,0.840619,0.998100,0.329443,-0.452607,0.402008,0.604595,0.473361,0.736631,0.926579,1.037264,0.955286,0.815547
1.19400,0.672172,0.790922,0.261287,-0.382733,0.331929,0.470305,0.370140,0.578739,0.717291,0.832539,0.746846,0.631734
1.19600,0.493386,0.570745,0.203615,-0.286625,0.227079,0.364850,0.258481,0.435391,0.550040,0.608771,0.554084,0.466925
1.19800,0.338960,0.394435,0.133337,-0.179747,0.176366,0.244848,0.183974,0.313038,0.357910,0.420280,0.386559,0.319560
1.20000,0.213791,0.260662,0.068332,-0.132768,0.100659,0.161639,0.109186,0.207398,0.238434,0.270271,0.246844,0.205671
1.20200,0.115823,0.155740,0.049327,-0.071021,0.069736,0.083142,0.074935,0.110539,0.126751,0.160664,0.125810,0.125536
1.20400,0.041457,0.061831,0.032255,-0.023053,0.017775,0.035622,0.023632,0.032468,0.043282,0.061725,0.061496,0.030173
1.20600,-0.008117,-0.003422,-0.002224,-0.007003,0.006205,-0.017556,0.001911,0.009088,-0.028082,-0.006410,-0.005199,-0.004935
1.20800,-0.059853,-0.063096,-0.034154,0.028726,-0.020294,-0.044469,-0.038284,-0.050818,-0.056550,-0.063079,-0.059557,-0.049120
1.21000,-0.101490,-0.128584,-0.028195,0.061264,-0.056939,-0.070617,-0.046230,-0.068763,-0.089299,-0.095402,-0.099706,-0.080207
1.21200,-0.115091,-0.141092,-0.034078,0.070144,-0.048092,-0.089874,-0.055859,-0.115291,-0.124739,-0.170759,-0.143220,-0.106023
1.21400,-0.149702,-0.165236,-0.071710,0.093540,-0.064417,-0.105145,-0.076289,-0.124771,-0.142986,-0.174948,-0.177024,-0.140589
1.21600,-0.154899,-0.186861,-0.068371,0.096531,-0.079761,-0.114889,-0.108076,-0.156272,-0.174263,-0.206266,-0.184000,-0.139981
1.21800,-0.188350,-0.210585,-0.076481,0.094259,-0.090194,-0.147901,-0.122939,-0.149837,-0.201058,-0.214863,-0.206222,-0.174629
1.22000,-0.191587,-0.220694,-0.087671,0.119241,-0.105110,-0.140952,-0.084449,-0.173696,-0.197620,-0.244904,-0.215793,-0.187777
1.22200,-0.201229,-0.244311,-0.087600,0.114667,-0.114328,-0.156343,-0.107094,-0.186798,-0.230331,-0.261078,-0.228388,-0.198644
1.22400,-0.204937,-0.239049,-0.060968,0.107734,-0.118696,-0.147746,-0.113938,-0.180222,-0.238498,-0.240542,-0.231353,-0.196544
1.22600,-0.216835,-0.226843,-0.077776,0.122422,-0.101231,-0.157323,-0.109956,-0.186246,-0.213381,-0.256036,-0.226702,-0.193582
1.22800,-0.191074,-0.224212,-0.080982,0.102811,-0.097705,-0.136122,-0.107994,-0.189813,-0.206524,-0.218987,-0.210565,-0.175435
1.23000,-0.170868,-0.205996,-0.080164,0.102750,-0.074418,-0.120989,-0.092736,-0.150547,-0.189507,-0.210985,-0.196092,-0.163417
1.23200,-0.165376,-0.185607,-0.054471,0.081138,-0.098876,-0.111547,-0.108444,-0.119132,-0.161694,-0.183886,-0.181250,-0.159323
1.23400,-0.136935,-0.154785,-0.059268,0.074240,-0.058617,-0.091602,-0.084600,-0.139611,-0.145548,-0.170664,-0.146638,-0.112386
1.23600,-0.096891,-0.126654,-0.032723,0.076325,-0.054089,-0.078731,-0.054169,-0.099553,-0.126337,-0.144377,-0.125947,-0.112961
1.23800,-0.083121,-0.107433,-0.020998,0.060195,-0.055847,-0.055222,-0.054123,-0.066825,-0.092999,-0.110921,-0.095064,-0.091521
1.24000,-0.067111,-0.076990,-0.028573,0.041140,-0.043640,-0.045449,-0.050507,-0.055930,-0.071257,-0.078719,-0.083835,-0.037775
1.24200,-0.054019,-0.058078,-0.027303,0.041098,-0.029697,-0.028028,-0.037769,-0.042701,-0.059406,-0.054177,-0.060674,-0.057407
1.24400,-0.031702,-0.052639,-0.023121,0.026206,-0.035326,-0.018834,-0.023821,-0.040382,-0.036452,-0.037723,-0.045712,-0.035811
1.24600,-0.015255,-0.019049,-0.009453,0.004530,-0.020148,-0.022187,-0.006304,-0.014638,-0.021688,-0.014516,-0.028279,-0.025226
1.24800,-0.015932,0.004003,-0.024345,0.008923,-0.001854,-0.008332,0.015173,0.000259,-0.005893,-0.023313,-0.008932,-0.015113
1.25000,-0.003676,-0.002763,-0.006266,0.007790,0.013288,0.006780,-0.000294,-0.021792,0.005908,0.005297,-0.006289,-0.008312
1.25200,0.008285,-0.005189,0.008184,-0.011591,-0.007739,0.001632,-0.012606,0.001875,0.007323,-0.009733,0.011128,-0.003243
1.25400,0.011757,0.009620,-0.001848,-0.008725,-0.012916,-0.001805,-0.003644,0.021251,0.016728,-0.004753,0.014963,0.008389
1.25600,0.006248,0.015642,0.011111,-0.010857,0.002105,0.008615,-0.003855,0.010381,0.009873,0.005646,0.003145,0.012215
1.25800,0.020292,0.017007,-0.003446,0.000300,0.007378,0.014245,0.017534,0.002186,0.011761,0.009176,0.005374,0.030255
1.26000,0.022463,-0.000799,0.009170,-0.012765,0.017294,0.010627,0.005885,0.013373,0.018371,0.016983,0.013279,0.011712
1.26200,0.019594,0.006488,0.005603,-0.009292,0.002563,0.017549,-0.003914,0.009625,0.008043,0.023177,0.012228,0.014536
1.26400,0.019260,0.003094,0.010172,-0.015616,0.005138,0.010227,0.016167,0.020682,0.033415,0.020769,0.013098,0.010191
1.26600,0.022454,0.033771,0.009395,-0.014380,0.010411,0.014161,0.009297,0.007452,-0.006046,0.014937,0.028147,0.017519
1.26800,-0.003674,0.019540,-0.010809,0.009258,0.009915,0.000967,0.016774,0.007611,0.023551,0.020883,0.007967,0.022314
1.27000,0.005019,0.032674,0.007225,-0.019248,-0.008517,0.027712,0.023193,0.003684,0.034304,0.022943,0.017563,0.015838
1.27200,0.015609,0.034198,0.008287,-0.027171,0.028243,0.021279,-0.000204,0.012614,0.011120,0.022538,0.023973,0.019435
1.27400,0.013161,0.014087,0.015034,-0.011250,0.030017,0.005961,0.017675,0.016955,0.013150,0.035595,0.022152,0.009463
1.27600,0.016460,0.031857,-0.004053,0.002186,0.015730,0.011395,0.023366,0.033447,0.026590,0.025310,0.039035,0.032445
1.27800,0.011535,0.021299,0.005664,-0.014955,-0.004313,0.022989,0.011895,0.018703,0.035008,0.019354,0.022094,0.021759
1.28000,0.016998,0.023168,0.015184,-0.011659,0.022588,0.008114,0.013471,0.005135,0.021626,0.019090,0.036365,0.026989
1.28200,0.026775,0.042626,0.021920,-0.005345,0.004071,0.002241,0.011817,0.016010,0.017667,0.024099,0.009067,0.034925
1.28400,0.012303,0.020169,0.014122,-0.028007,0.019738,0.025427,0.009726,0.010113,0.020416,0.010656,0.038899,0.022399
1.28600,0.017250,0.019262,0.014611,0.000883,-0.000413,0.011994,-0.003304,0.027680,0.027613,0.050873,0.025945,0.018869
1.28800,0.018773,0.037370,-0.005723,-0.006914,0.014565,0.013562,0.005470,0.032406,0.045144,0.026863,0.033551,0.040712
1.29000,0.021017,0.028539,-0.001344,-0.016191,0.012135,0.015395,0.007780,0.008646,0.016281,0.023536,0.036205,0.020714
1.29200,0.020358,0.038945,0.016154,-0.022813,0.007700,0.026759,0.019115,0.017086,0.033009,0.034424,0.042456,0.018768
1.29400,0.038554,0.038788,0.001854,-0.006544,0.023132,0.009144,0.035470,0.015606,0.023802,0.033709,0.041117,0.034205
1.29600,0.031115,0.049866,0.016034,-0.004279,0.042302,0.024903,-0.007021,0.023846,0.024279,0.039945,0.036797,0.018658
1.29800,0.022998,0.036635,0.011055,-0.043746,0.025699,0.024820,0.018636,0.032828,0.026925,0.041062,0.048150,0.042740
1.30000,0.040737,0.039028,0.005853,-0.007199,0.022485,0.022029,-0.001064,0.023499,0.020482,0.056351,0.042462,0.027232
1.30200,0.036006,0.069759,0.026536,-0.034370,0.017299,0.015863,0.004468,0.035752,0.065375,0.062463,0.043767,0.033082
1.30400,0.043287,0.057640,0.001389,-0.041041,0.038273,0.032495,0.038486,0.038691,0.059132,0.044398,0.051167,0.054515
1.30600,0.054198,0.046242,0.025589,-0.030834,0.007133,0.036950,0.038091,0.047238,0.035257,0.062449,0.056160,0.037395
1.30800,0.022620,0.064333,0.026711,-0.021042,0.005516,0.019233,0.035993,0.049500,0.055884,0.055145,0.056780,0.039471
1.31000,0.047397,0.049464,0.021750,-0.031928,0.033697,0.043515,0.019699,0.062701,0.043376,0.066086,0.067337,0.060726
1.31200,0.032063,0.072105,0.032682,-0.015385,0.003767,0.032159,0.028733,0.043102,0.071727,0.059148,0.072774,0.056932
1.31400,0.043303,0.056588,0.017286,-0.030833,0.037673,0.039805,0.040882,0.035148,0.031961,0.067167,0.069339,0.051314
1.31600,0.051765,0.075363,0.042837,-0.035057,0.022433,0.036085,0.053684,0.054034,0.072931,0.087670,0.080056,0.049548
1.31800,0.075731,0.084534,0.030037,-0.026298,0.026149,0.046899,0.031147,0.065813,0.064933,0.084661,0.063171,0.061642
1.32000,0.067133,0.080222,0.028215,-0.040752,0.031766,0.030239,0.049966,0.056029,0.073964,0.078044,0.089234,0.058171
1.32200,0.080652,0.098733,0.045186,-0.029703,0.042488,0.042467,0.054493,0.078423,0.090049,0.100287,0.085475,0.066716
1.32400,0.091581,0.105618,0.020363,-0.035229,0.041277,0.067056,0.047227,0.082228,0.097523,0.107456,0.076797,0.085031
1.32600,0.086780,0.087995,0.039918,-0.060874,0.050413,0.079049,0.042543,0.085137,0.097714,0.111764,0.083244,0.088100
1.32800,0.093388,0.113190,0.035199,-0.039431,0.047036,0.073111,0.064341,0.082887,0.109316,0.114580,0.108320,0.082317
1.33000,0.105792,0.124938,0.036651,-0.045676,0.051493,0.059814,0.057599,0.099438,0.101180,0.102088,0.111918,0.086922
1.33200,0.123142,0.119637,0.039838,-0.063125,0.052763,0.069731,0.048707,0.091334,0.104794,0.140320,0.105464,0.098520
1.33400,0.104208,0.114006,0.058727,-0.081151,0.067736,0.066139,0.062084,0.119925,0.098945,0.121853,0.137133,0.107151
1.33600,0.112419,0.135078,0.035512,-0.063031,0.071371,0.081148,0.066302,0.115486,0.146661,0.137848,0.134818,0.106391
1.33800,0.118511,0.139578,0.041455,-0.085071,0.040598,0.082815,0.070110,0.121794,0.129590,0.150574,0.146240,0.125858
1.34000,0.130999,0.151366,0.068774,-0.075396,0.058803,0.079298,0.077068,0.113727,0.161365,0.157831,0.155886,0.134671
1.34200,0.155779,0.147709,0.068609,-0.076127,0.066192,0.097606,0.073098,0.119561,0.127953,0.175281,0.156971,0.123376
1.34400,0.146756,0.191917,0.059942,-0.084307,0.087649,0.098430,0.079712,0.124327,0.156826,0.186869,0.170690,0.132881
1.34600,0.154042,0.179380,0.055236,-0.085246,0.067680,0.104733,0.085996,0.126625,0.171767,0.187492,0.164896,0.141563
1.34800,0.158728,0.186288,0.063393,-0.091404,0.070132,0.131663,0.098808,0.144889,0.185681,0.202433,0.180429,0.156051
1.35000,0.197542,0.206980,0.075535,-0.097760,0.088371,0.145595,0.098675,0.161490,0.197544,0.215566,0.207480,0.165292
1.35200,0.184832,0.200872,0.094193,-0.095597,0.087628,0.143158,0.094407,0.158384,0.186795,0.219749,0.197799,0.176268
1.35400,0.187251,0.210909,0.068945,-0.104380,0.085653,0.144857,0.110295,0.167297,0.192014,0.234880,0.198688,0.180853
1.35600,0.197484,0.220833,0.067013,-0.114663,0.114565,0.139364,0.106483,0.182681,0.216811,0.250524,0.208776,0.176664
1.35800,0.237775,0.236007,0.075501,-0.111115,0.108403,0.136632,0.115940,0.180694,0.228533,0.252457,0.225125,0.186983
1.36000,0.190711,0.255739,0.067397,-0.121291,0.118982,0.150270,0.123825,0.186498,0.238051,0.261552,0.234973,0.216512
1.36200,0.220210,0.243259,0.081651,-0.116930,0.096349,0.168035,0.130008,0.216482,0.234399,0.278082,0.233412,0.207617
1.36400,0.232279,0.269840,0.087514,-0.127672,0.105252,0.162305,0.130251,0.208918,0.255898,0.291653,0.270404,0.202412
1.36600,0.234657,0.274030,0.085052,-0.121373,0.122360,0.171604,0.133095,0.223068,0.255489,0.289324,0.277095,0.232205
1.36800,0.261548,0.288629,0.101554,-0.141191,0.110133,0.178496,0.111043,0.222125,0.277053,0.303153,0.275541,0.245969
1.37000,0.255611,0.303774,0.118454,-0.133476,0.132012,0.189136,0.143334,0.227970,0.277129,0.322664,0.271271,0.240675
1.37200,0.270178,0.295359,0.099435,-0.151371,0.131019,0.198340,0.159162,0.237059,0.278106,0.324295,0.300969,0.264200
1.37400,0.250994,0.315734,0.085865,-0.142079,0.134711,0.200327,0.157905,0.242635,0.287021,0.334530,0.315518,0.256830
1.37600,0.279085,0.309016,0.117200,-0.157760,0.126877,0.196551,0.145243,0.242991,0.313285,0.347675,0.325850,0.279087
1.37800,0.277251,0.333222,0.123084,-0.134856,0.123813,0.192248,0.161779,0.248332,0.299150,0.352249,0.312534,0.249855
1.38000,0.292182,0.337420,0.117347,-0.151464,0.142218,0.208335,0.154564,0.241606,0.311577,0.366180,0.333662,0.297363
1.38200,0.297141,0.326316,0.121498,-0.153977,0.132283,0.199639,0.165774,0.269571,0.311756,0.360978,0.326969,0.272370
1.38400,0.291777,0.351299,0.112216,-0.173488,0.121277,0.235857,0.158452,0.266521,0.317791,0.374845,0.326405,0.289999
1.38600,0.307815,0.364792,0.107285,-0.176234,0.146441,0.242946,0.156273,0.275235,0.328089,0.380634,0.352952,0.295450
1.38800,0.316886,0.364181,0.113929,-0.174783,0.135138,0.222984,0.165610,0.274216,0.346524,0.387135,0.356552,0.309167
1.39000,0.295864,0.370505,0.120897,-0.176043,0.140504,0.234666,0.186226,0.290191,0.343263,0.394770,0.365621,0.320068
1.39200,0.334029,0.372011,0.123420,-0.175588,0.156908,0.227340,0.184661,0.277033,0.340438,0.396587,0.355499,0.303857
1.39400,0.305637,0.381845,0.123638,-0.180150,0.160653,0.236338,0.172335,0.305529,0.347175,0.406328,0.381956,0.303249
1.39600,0.328896,0.369387,0.134679,-0.183548,0.146957,0.248730,0.189169,0.280161,0.365525,0.402013,0.393260,0.327963
1.39800,0.324651,0.376863,0.117023,-0.180166,0.158833,0.244587,0.182300,0.276310,0.348589,0.416015,0.380548,0.311896
1.40000,0.329972,0.379349,0.126102,-0.198202,0.167552,0.232233,0.183600,0.267389,0.359998,0.416912,0.349677,0.329200
1.40200,0.336480,0.374767,0.111014,-0.171479,0.161837,0.244680,0.179991,0.284522,0.366837,0.395884,0.380410,0.299412
1.40400,0.323208,0.367983,0.138689,-0.199350,0.148498,0.245382,0.184813,0.313148,0.376203,0.410994,0.378484,0.297997
1.40600,0.323062,0.378074,0.124267,-0.195470,0.150211,0.230573,0.192478,0.295780,0.354833,0.401780,0.374053,0.308241
1.40800,0.327785,0.363385,0.131920,-0.172479,0.162009,0.242386,0.185159,0.310193,0.358676,0.390317,0.359909,0.320595
1.41000,0.338701,0.385145,0.132860,-0.178900,0.143424,0.229723,0.163336,0.285359,0.341712,0.401677,0.366271,0.293387
1.41200,0.333078,0.382259,0.110553,-0.178000,0.163358,0.231953,0.187511,0.288717,0.362416,0.399550,0.363571,0.314623
1.41400,0.330526,0.373857,0.118377,-0.185360,0.151401,0.227013,0.179563,0.285834,0.347994,0.394017,0.363381,0.321864
1.41600,0.330939,0.361730,0.125334,-0.179008,0.152281,0.227542,0.169560,0.267897,0.321186,0.391549,0.369058,0.294626
1.41800,0.320046,0.358746,0.122354,-0.181369,0.148958,0.225799,0.150331,0.279390,0.339048,0.360589,0.359245,0.299046
1.42000,0.312417,0.360522,0.113823,-0.181439,0.144601,0.219324,0.192077,0.290954,0.330558,0.374759,0.350804,0.300337
1.42200,0.298516,0.341342,0.134528,-0.158022,0.131332,0.202583,0.159742,0.270662,0.334920,0.369078,0.326180,0.292027
1.42400,0.305329,0.344444,0.108829,-0.159575,0.143055,0.204671,0.165498,0.250937,0.332811,0.369974,0.325770,0.286541
1.42600,0.305498,0.316550,0.109927,-0.145790,0.125553,0.209493,0.147336,0.257444,0.293447,0.342132,0.323337,0.280002
1.42800,0.290485,0.334007,0.119999,-0.151395,0.144709,0.196848,0.156075,0.283447,0.331918,0.358060,0.328482,0.282111
1.43000,0.275927,0.341077,0.102490,-0.155199,0.155505,0.181040,0.157346,0.229366,0.295886,0.340616,0.310042,0.267573
1.43200,0.265074,0.312531,0.091746,-0.154208,0.117059,0.202647,0.137067,0.246685,0.290370,0.329664,0.316982,0.260032
1.43400,0.246369,0.309763,0.071930,-0.143602,0.123110,0.176937,0.146414,0.230155,0.306071,0.319082,0.316068,0.265439
1.43600,0.251158,0.287750,0.110610,-0.143269,0.124880,0.182578,0.129344,0.222607,0.268290,0.298677,0.285189,0.262012
1.43800,0.265157,0.285926,0.095828,-0.132395,0.132920,0.182448,0.132145,0.215309,0.280337,0.329864,0.272839,0.216274
1.44000,0.248920,0.276279,0.092726,-0.120635,0.116137,0.160149,0.112817,0.211457,0.248639,0.296811,0.257126,0.225304
1.44200,0.217812,0.263756,0.083709,-0.122374,0.124811,0.165461,0.119134,0.224026,0.254702,0.289764,0.266464,0.235332
1.44400,0.234006,0.264334,0.092577,-0.132153,0.101287,0.160107,0.123984,0.197233,0.244973,0.273549,0.246598,0.196553
1.44600,0.223691,0.253557,0.072908,-0.113880,0.107174,0.155708,0.099982,0.177450,0.226609,0.278898,0.232661,0.201114
1.44800,0.195624,0.232839,0.081807,-0.134785,0.070771,0.155365,0.113921,0.175832,0.232935,0.261929,0.210613,0.194682
1.45000,0.209116,0.221119,0.071967,-0.099808,0.092252,0.130570,0.101955,0.161012,0.219448,0.224456,0.231854,0.171697
1.45200,0.189873,0.203223,0.068661,-0.094376,0.102000,0.149347,0.103175,0.167732,0.206919,0.237306,0.208194,0.190932
1.45400,0.184109,0.219456,0.073336,-0.093102,0.079375,0.125982,0.086440,0.156164,0.193584,0.229057,0.190002,0.204136
1.45600,0.171158,0.210853,0.075734,-0.120416,0.079981,0.138770,0.070444,0.159347,0.177030,0.205692,0.195332,0.145082
1.45800,0.165969,0.182193,0.054663,-0.083612,0.113658,0.121440,0.095614,0.143785,0.169916,0.202732,0.198899,0.157680
1.46000,0.164691,0.176923,0.084222,-0.102611,0.080473,0.117492,0.088203,0.125874,0.156868,0.187741,0.175477,0.135819
1.46200,0.137039,0.175502,0.066245,-0.087350,0.063732,0.098967,0.105857,0.134813,0.158858,0.190300,0.188392,0.151979
1.46400,0.125524,0.159970,0.048856,-0.080880,0.054732,0.096625,0.065863,0.126361,0.151443,0.156453,0.139498,0.127962
1.46600,0.138642,0.156949,0.049298,-0.106373,0.058255,0.087593,0.069124,0.103983,0.138372,0.154595,0.175222,0.132537
1.46800,0.122744,0.142959,0.045939,-0.067305,0.055576,0.089479,0.078686,0.118005,0.137782,0.165552,0.141937,0.108580
1.47000,0.099964,0.128197,0.043767,-0.061248,0.066990,0.078722,0.056360,0.111077,0.138729,0.138635,0.135022,0.125391
1.47200,0.113771,0.126648,0.020915,-0.048131,0.059316,0.080748,0.055961,0.084740,0.118431,0.133894,0.134875,0.092855
1.47400,0.118335,0.119874,0.051128,-0.067482,0.053130,0.086919,0.058104,0.076628,0.108913,0.132190,0.102368,0.084186
1.47600,0.099835,0.102630,0.043618,-0.066017,0.028178,0.062290,0.068392,0.077080,0.105253,0.121484,0.099708,0.103525
1.47800,0.093129,0.109580,0.017617,-0.068387,0.016043,0.063769,0.047776,0.087598,0.113585,0.109010,0.099685,0.091292
1.48000,0.100834,0.090158,0.038533,-0.050094,0.037506,0.069635,0.038955,0.064519,0.099063,0.104175,0.093200,0.079901
1.48200,0.084938,0.088311,0.037825,-0.040400,0.053031,0.070148,0.052403,0.068303,0.087584,0.091713,0.118153,0.073742
1.48400,0.080256,0.099553,0.014530,-0.049887,0.031725,0.043737,0.028243,0.060530,0.093644,0.098467,0.084067,0.071246
1.48600,0.053092,0.087188,0.030553,-0.049673,0.035367,0.048181,0.033018,0.051425,0.068567,0.075701,0.082745,0.069878
1.48800,0.068224,0.072973,0.020430,-0.015801,0.012417,0.058686,0.039153,0.057861,0.065142,0.077189,0.060985,0.047868
1.49000,0.059440,0.053123,0.031222,-0.022619,-0.005491,0.027993,0.035899,0.055381,0.066549,0.078175,0.075338,0.066189
1.49200,0.074287,0.065158,0.029893,-0.047674,0.025613,0.028334,0.044832,0.072952,0.066354,0.055869,0.062082,0.053870
1.49400,0.054472,0.071292,0.029330,-0.055756,0.038733,0.032763,0.023172,0.060337,0.054051,0.050400,0.045576,0.050443
1.49600,0.057907,0.071205,0.016702,-0.031911,0.039549,0.030522,0.041336,0.045296,0.055139,0.057284,0.057698,0.041744
1.49800,0.038626,0.050911,0.010614,-0.022293,0.022535,0.030015,0.022881,0.037656,0.066459,0.055368,0.044957,0.040178
1.50000,0.048851,0.046591,0.014397,-0.026144,0.021795,0.034243,0.027555,0.020776,0.034950,0.025289,0.055327,0.051175
1.50200,0.052255,0.046617,0.026253,-0.022332,0.017510,0.012796,0.013662,0.028600,0.051592,0.064520,0.039309,0.041002
1.50400,0.039266,0.034290,-0.003478,-0.027980,0.003036,0.023059,0.018550,0.030283,0.037759,0.049411,0.031600,0.043528
1.50600,0.017258,0.039708,0.016622,-0.026985,0.000234,0.030742,0.011824,0.037644,0.044352,0.041410,0.038031,0.042086
1.50800,0.035356,0.027066,0.013513,-0.012277,0.017046,0.024564,0.015786,0.026592,0.024824,0.024346,0.046642,0.023660
1.51000,0.031658,0.018946,0.012596,-0.024861,0.043547,0.010979,0.006456,0.035262,0.043140,0.015010,0.035542,0.036696
1.51200,0.015283,0.038422,0.005015,-0.025467,0.009544,0.015098,0.001151,0.046374,0.025147,0.026134,0.039273,0.025345
1.51400,0.038895,0.026872,0.013057,-0.013621,0.013812,0.016309,0.012934,0.039176,0.020952,0.025913,0.025334,0.030004
1.51600,0.027960,0.036902,-0.004372,-0.011062,0.009609,0.014340,0.014683,0.001528,0.028628,0.030750,0.012719,0.021820
1.51800,0.037832,0.022029,0.014237,-0.015040,0.002586,0.006966,0.008286,0.032623,0.032376,0.020473,0.035092,0.020062
1.52000,0.014240,0.028559,-0.001198,-0.027594,0.022793,-0.002990,0.016837,0.003430,0.022512,0.023836,0.019309,-0.001608
1.52200,0.018765,0.022496,-0.001512,-0.012014,0.019205,0.007112,0.013338,0.006068,0.025240,0.030603,0.046783,0.027799
1.52400,0.023001,0.035490,-0.002863,-0.000113,0.003478,0.007303,0.021006,0.018770,0.033342,0.008624,0.023713,0.012615
1.52600,0.015057,0.001615,0.015837,-0.008027,-0.001317,-0.000557,0.001095,0.029360,0.018200,0.018419,0.024771,0.016984
1.52800,0.019123,0.026716,0.009554,-0.000891,-0.003725,0.012718,0.005723,0.015883,0.017852,0.014390,0.015509,0.025356
1.53000,0.010640,0.006277,0.011879,0.000541,0.005024,0.012816,0.000594,0.012174,0.028265,0.027543,0.019517,0.012620
1.53200,-0.000601,0.020784,0.010308,0.001808,0.027119,0.014767,0.017833,0.002614,0.028447,0.027306,0.030616,0.021258
1.53400,0.019174,0.031431,-0.000890,-0.001801,0.017689,0.002960,-0.003128,0.017249,0.017180,0.023984,0.022864,0.006583
1.53600,0.017501,0.027337,0.001983,-0.010473,-0.004127,0.018241,0.026911,-0.000812,0.022807,0.026164,0.010488,0.009919
1.53800,0.003520,0.008117,0.006911,-0.000980,0.007801,0.018265,0.009617,0.000715,0.028982,0.028286,0.008461,0.030355
1.54000,0.017846,0.016531,0.023852,-0.031368,-0.009171,0.016555,0.005010,0.002506,0.029056,0.020946,0.002450,0.006232
1.54200,0.021130,0.032199,-0.014478,-0.004281,0.002605,-0.007664,0.005600,-0.004227,0.008702,0.031491,0.019463,0.019923
1.54400,0.018395,0.017850,0.014437,-0.017816,0.002681,0.017459,-0.000044,0.006840,0.025344,0.030258,0.008163,0.004034
1.54600,0.017957,0.016696,-0.001684,-0.000372,0.011489,0.009739,0.035604,0.024126,0.021201,0.024910,0.042636,0.022424
1.54800,0.004976,0.016871,0.005523,-0.011523,0.008510,0.011211,0.006241,0.005865,0.021033,-0.001025,0.021456,0.011529
1.55000,0.014421,-0.009778,0.021140,-0.022721,-0.002597,0.014863,0.000722,0.006401,-0.009189,0.009968,0.015180,0.017821
1.55200,0.008692,0.015304,0.008925,-0.012251,-0.001596,0.027594,-0.001801,0.022246,0.013091,0.028365,0.006588,0.016028
1.55400,0.014534,0.010697,0.007609,-0.013043,0.004868,0.004347,0.013871,0.009104,-0.001478,0.010041,0.011637,0.001907
1.55600,0.024138,0.016660,0.012756,-0.012894,0.001655,0.018000,-0.007733,0.013424,0.012828,0.008538,0.013264,0.000016
1.55800,0.013123,0.000556,-0.008092,0.008415,-0.001406,-0.012755,0.015771,0.002084,-0.022817,0.012660,0.021284,0.013853
1.56000,0.027652,0.011079,0.010254,-0.015110,0.007010,0.022924,0.011082,0.011129,-0.007833,0.009333,-0.000660,0.017894
1.56200,0.003363,0.015707,-0.005523,0.013424,-0.006190,0.009137,0.031918,0.011526,0.002857,0.018915,0.021612,0.018694
1.56400,-0.008883,0.014140,-0.016659,0.013644,0.005993,0.003157,0.012622,0.014111,-0.000367,0.028733,0.009322,-0.007328
1.56600,0.024206,0.027013,0.016635,0.000443,-0.003560,0.016881,0.024304,0.017263,0.027017,0.004929,0.021676,0.019179
1.56800,-0.004424,-0.004300,-0.002889,-0.004086,0.009698,0.005340,0.005261,0.008028,0.011980,0.018268,0.016416,0.009296
1.57000,0.012800,0.007222,0.012107,-0.009819,0.021454,0.007283,0.008587,0.001538,0.007599,0.014014,0.011598,0.003594
1.57200,-0.001362,0.012000,0.005717,0.000686,0.017527,0.004364,-0.013971,0.007586,-0.007392,-0.000487,0.021548,0.015311
1.57400,0.003685,0.005208,0.003284,-0.022147,0.009897,0.003949,0.024083,-0.001585,0.020831,0.005420,0.021386,-0.000115
1.57600,0.017323,0.007068,-0.004052,-0.006149,0.009839,0.011400,0.021474,0.017068,-0.015446,0.008127,-0.008664,0.005735
1.57800,0.016172,-0.001939,-0.007620,-0.003173,0.002205,0.023100,0.008947,0.014141,0.028148,0.007045,0.011084,-0.000385
1.58000,0.012479,0.021621,0.017758,-0.004923,-0.002028,-0.000334,-0.008185,0.010009,0.024219,-0.011658,-0.010649,0.023439
1.58200,-0.006185,0.014565,-0.008435,0.003302,0.012866,0.008974,0.013950,0.009283,0.016266,0.030147,0.021980,0.002873
1.58400,0.001836,0.008859,0.001858,-0.003712,-0.000959,0.013806,0.006105,0.012384,0.010691,0.018057,-0.000953,0.025222
1.58600,0.013307,0.015717,0.010279,0.006461,0.012454,0.009673,0.003936,-0.007652,0.012756,0.008781,0.007857,0.033463
1.58800,-0.008736,0.011775,0.016319,0.005334,0.017513,-0.005359,-0.003839,0.014966,0.007646,0.028996,0.013263,0.011395
1.59000,0.014254,0.008495,0.005428,-0.010934,0.004782,0.002502,0.008358,-0.005370,-0.004305,0.016477,0.013245,-0.000194
1.59200,0.007585,0.000722,0.024666,-0.019741,0.022303,-0.000887,0.010023,0.006166,0.006790,0.021220,0.019119,0.006540
1.59400,0.000751,0.031911,0.018319,-0.002647,0.002213,0.010269,0.006637,0.020738,0.000921,0.012039,0.003095,0.022477
1.59600,0.027845,0.010242,0.009680,0.010045,0.002185,-0.002012,0.016208,0.013818,0.008467,0.026398,0.013263,-0.008418
1.59800,0.013252,0.010528,0.023088,-0.004142,0.003111,0.011675,0.008247,-0.005350,0.011703,0.008474,0.024909,0.033355
1.60000,-0.001418,0.001428,-0.004144,-0.010509,-0.001740,0.007826,0.016675,-0.004307,-0.004914,-0.006714,0.021878,0.022594
1.60200,-0.005620,-0.005266,0.005576,0.007022,0.015304,0.009204,0.012594,0.011950,0.004895,0.030758,0.010780,-0.001825
1.60400,0.005016,-0.004411,0.004436,0.007093,-0.007508,0.018522,0.026698,0.012435,-0.001180,0.003094,0.007405,-0.003558
1.60600,-0.002843,0.008371,0.002454,0.002213,-0.006871,0.025952,0.016360,0.017527,0.003847,0.028983,0.007278,0.027394
1.60800,0.020342,0.001952,-0.000298,0.014900,0.015135,0.005642,0.007764,0.010572,0.002587,0.009531,0.004063,0.004903
1.61000,0.014257,0.001299,0.011505,-0.002696,0.012732,0.016073,0.018181,0.014842,0.017359,0.009683,0.016323,0.000135
1.61200,0.007080,0.018337,0.003697,0.000692,-0.005506,0.020841,-0.000101,0.012477,0.010004,0.020780,0.006743,-0.000907
1.61400,-0.009514,0.007715,-0.007766,0.001604,0.019503,-0.015195,-0.007272,0.011574,0.022561,0.014448,0.013778,0.014147
1.61600,0.015230,0.027222,0.010326,-0.016180,0.000294,0.009182,-0.002512,0.005821,0.004866,0.004298,0.017446,0.005126
1.61800,-0.001548,0.003507,0.004542,0.017497,0.007609,0.021955,0.010574,-0.013192,0.013902,0.002719,-0.003176,-0.001838
1.62000,0.027355,-0.005231,-0.002087,0.007950,0.011674,-0.010196,0.004458,0.003166,0.008078,0.018788,0.004579,0.005723
1.62200,0.024014,-0.007969,0.000368,0.001037,-0.007591,0.000619,-0.007693,0.009875,0.003711,0.019084,0.020602,0.009358
1.62400,0.005447,0.013146,0.004669,-0.015942,0.015716,0.009201,0.013450,-0.005459,0.018764,0.032326,0.016469,-0.005772
1.62600,0.009589,0.009869,0.006257,-0.006031,0.009885,0.002196,0.007784,0.001266,0.010868,0.021071,0.005252,0.015512
1.62800,0.000213,0.006648,0.001641,0.008902,-0.002879,0.019125,-0.009357,0.006560,0.019019,0.017982,-0.000054,-0.003619
1.63000,0.017958,-0.002402,0.009844,-0.008931,0.004699,0.030166,0.021041,0.016585,-0.004163,0.014130,0.010610,0.007656
1.63200,0.022548,-0.007099,0.007170,-0.002392,-0.002817,0.024190,-0.007470,0.008326,0.010491,-0.011335,-0.004458,-0.001195
1.63400,0.016946,0.019765,0.009931,-0.001240,-0.017511,0.008871,0.000101,0.019838,0.023237,0.033399,0.017117,0.016805
1.63600,-0.001518,0.010938,-0.008623,0.005412,-0.007400,0.004466,-0.003056,0.003180,0.014181,0.004972,0.012101,-0.001676
1.63800,0.023002,0.003533,0.014098,0.017993,-0.020056,-0.003475,0.003117,0.019734,0.004568,0.014457,0.002397,0.014136
1.64000,-0.003526,0.018482,-0.026565,-0.022873,0.023076,0.008278,-0.003939,0.030200,0.020094,0.022014,0.005439,0.014687
1.64200,0.013883,-0.006942,0.009802,-0.005555,0.017655,0.019777,-0.001431,0.001603,0.011303,0.017144,0.005479,0.007142
1.64400,0.014893,0.014170,0.015587,-0.001240,-0.004526,-0.011568,0.013354,0.004294,0.005737,0.007442,-0.006455,0.004256
1.64600,-0.017984,0.005678,-0.005460,0.015116,0.009053,0.004194,0.006693,0.015105,0.001483,0.007979,0.005907,0.033632
1.64800,0.009291,-0.010414,0.011823,0.022837,-0.005358,0.042001,0.004349,0.017853,0.003379,0.007498,-0.003161,-0.002712
1.65000,-0.013521,0.021410,-0.008174,0.000139,0.007795,-0.000389,0.005440,0.006559,0.004004,0.010703,0.009928,-0.002424
1.65200,-0.004915,0.000855,0.004829,0.010566,0.019495,0.009461,0.014655,0.008738,0.020412,0.011437,0.013387,0.005076
1.65400,0.008296,0.029093,-0.008821,-0.003644,-0.001787,0.016082,0.023591,0.004193,-0.019666,0.016399,0.015630,-0.009456
1.65600,0.005792,0.008754,-0.020402,0.003301,0.008817,0.008591,-0.006167,-0.000018,0.002334,0.014922,-0.000993,0.023032
1.65800,0.012135,-0.013197,0.020899,-0.002047,-0.001487,0.007114,-0.014185,0.009246,-0.016693,-0.000733,0.023163,0.020896
1.66000,0.004596,-0.000754,0.013083,-0.004227,0.006356,0.012493,-0.006496,0.015443,-0.013255,0.024994,-0.007300,0.001190
1.66200,0.001101,0.016766,0.011100,0.000009,0.009737,0.010786,0.003858,-0.012775,-0.015372,-0.014266,0.008428,0.005260
1.66400,0.006516,0.011437,0.000823,-0.014167,-0.011637,-0.013947,0.017221,0.016496,-0.005577,0.006736,0.013433,0.024180
1.66600,0.001598,0.010827,0.015291,-0.021906,-0.003694,0.005349,-0.003046,0.029017,0.017517,0.011556,-0.001279,0.016523
1.66800,0.014412,0.003541,-0.001375,-0.019065,0.003097,0.014740,0.014877,0.012946,0.016991,0.003272,0.003762,0.019978
1.67000,0.012440,0.000544,0.008350,0.004876,0.011242,0.006762,-0.001016,0.010990,0.025998,0.010880,0.001628,0.010876
1.67200,-0.005198,0.011162,-0.000046,0.006192,0.004887,0.016532,0.028312,0.004492,-0.000464,0.014063,0.007615,0.008752
1.67400,0.001322,0.014492,0.003762,-0.026305,0.001307,0.009007,0.016551,0.000692,-0.000179,0.021164,0.002118,0.008305
1.67600,0.012456,0.016308,0.003090,-0.015364,0.014247,0.000970,-0.001176,0.027517,0.017250,-0.001885,0.003396,0.004605
1.67800,-0.000306,-0.011356,0.011310,0.004277,0.006232,0.001269,0.006406,0.013231,-0.002772,0.005620,0.002535,0.014335
1.68000,0.010140,-0.004971,-0.003460,0.014552,-0.006410,0.006958,-0.002369,0.019481,0.007323,0.004467,-0.003916,0.004500
1.68200,0.015950,0.015409,-0.010817,0.012385,0.001060,-0.005583,0.005434,0.000035,0.001917,0.002368,0.007258,0.001788
1.68400,-0.010427,0.013761,-0.002551,0.008586,0.009102,0.011654,0.005936,0.019821,0.004448,-0.001442,0.011689,-0.021240
1.68600,0.003402,0.010501,-0.001494,0.009204,0.010767,0.006391,-0.000129,0.017675,0.000754,0.004465,0.015772,0.012998
1.68800,0.028186,0.005974,-0.016663,0.003020,0.016467,0.003464,0.020069,0.024689,0.000825,0.003723,-0.004954,0.012387
1.69000,0.014513,0.014390,-0.010006,-0.011678,-0.011348,-0.011531,-0.009985,-0.010094,0.005749,0.012982,0.014358,0.006501
1.69200,0.000087,0.007955,0.008566,-0.006859,0.003926,0.001896,-0.001542,0.006515,-0.003951,0.019375,-0.008274,0.011398
1.69400,-0.007089,0.023556,0.011604,-0.012167,-0.001294,-0.006621,0.003221,0.010346,0.033817,-0.005605,0.020550,0.000595
1.69600,0.009734,0.016979,0.008215,0.000562,0.001282,0.004878,0.005364,0.018405,-0.007661,0.003351,-0.005107,-0.003369
1.69800,-0.001359,0.019176,0.024663,0.010171,-0.008899,0.005705,-0.007909,0.010609,0.020472,0.014401,0.016627,0.004993
1.70000,-0.013440,-0.012549,0.001572,0.002160,0.016327,0.001321,0.004510,0.008618,0.018278,0.007587,-0.003627,0.017589
1.70200,0.010990,0.011709,-0.010499,-0.003802,-0.014417,-0.015749,0.001282,0.001480,0.013138,0.023062,0.007222,0.024793
1.70400,0.000682,0.015566,-0.010467,-0.002404,-0.000024,0.002692,0.009742,-0.013448,0.008448,-0.000140,0.008731,0.010420
1.70600,0.002869,0.003858,-0.009299,0.001956,-0.003702,0.009366,-0.010963,0.019917,-0.003270,0.020024,0.002882,0.011945
1.70800,0.005164,0.014604,0.002567,0.009373,0.010077,0.011770,0.020779,-0.001315,0.020522,0.008833,-0.007737,0.011211
1.71000,0.004503,0.024898,-0.002537,-0.003127,0.005570,-0.014796,0.008839,-0.004392,0.021563,0.025135,0.007303,-0.009992
1.71200,0.008418,0.009346,0.009879,-0.006646,-0.009062,0.003262,-0.005890,0.023941,-0.000173,0.001310,0.006862,-0.006492
1.71400,0.001943,0.006103,-0.002537,-0.006161,0.015854,0.009136,-0.010133,0.001327,0.014686,0.001276,0.008133,0.005892
1.71600,0.011889,0.005606,0.001011,-0.012366,0.006792,-0.004854,0.021327,0.005488,0.004695,0.015973,0.006377,0.007054
1.71800,0.005891,-0.000040,-0.007004,-0.010703,0.014684,-0.001802,-0.000622,0.001055,0.014092,0.028140,-0.002272,0.011727
1.72000,0.007609,0.004241,0.007602,-0.016530,0.011592,0.006858,-0.006701,0.021942,0.015610,0.019694,-0.007743,0.003288
1.72200,0.000993,0.013708,0.016279,-0.022995,0.003252,0.003278,0.013716,0.005167,-0.006165,0.005750,-0.003497,-0.001931
1.72400,0.006732,0.002327,0.005249,-0.018989,0.026764,0.017436,0.010804,-0.007682,-0.015266,-0.001142,0.004681,0.028804
1.72600,0.019617,0.001824,0.014732,0.009071,0.003163,0.016948,0.006816,-0.001191,-0.005255,0.006378,0.017211,-0.007913
1.72800,-0.010258,0.012770,-0.025420,0.015216,-0.001515,0.011965,0.022431,-0.009366,-0.004029,0.030509,0.004051,0.004598
1.73000,0.008495,0.017903,0.015898,-0.002272,-0.000465,0.004071,0.006495,0.018823,0.008052,0.026142,-0.001861,0.011303
1.73200,0.024084,0.020217,0.005729,-0.012398,-0.004340,0.002813,0.006547,0.002846,-0.008266,-0.000068,0.012158,0.014362
1.73400,-0.008222,0.003276,-0.014801,-0.009113,0.039144,0.005033,-0.000184,-0.000663,-0.005798,-0.011578,0.006386,0.002957
1.73600,0.021150,-0.009781,0.006750,0.010392,-0.017113,0.011078,-0.013144,0.010659,0.021617,0.007334,0.009704,-0.001351
1.73800,0.008959,0.018478,0.000411,-0.004725,0.006872,0.012737,-0.013431,0.005895,-0.000521,0.012401,0.017321,0.008894
1.74000,0.019171,-0.003278,-0.001911,-0.013393,0.003470,0.005276,0.001255,-0.007150,0.005656,0.002801,0.012862,0.002907
1.74200,0.017819,0.009175,-0.016747,-0.005016,-0.011778,0.014173,0.017931,0.004940,0.010932,-0.007565,-0.016375,-0.000051
1.74400,0.003269,-0.008722,0.003174,-0.000017,0.009413,0.020095,0.011529,0.001433,0.007433,0.013328,-0.004105,0.019177
1.74600,0.015072,0.004409,-0.004287,0.035751,0.011424,0.013841,0.021636,0.015199,0.008479,0.014346,-0.002783,0.012897
1.74800,-0.009929,0.011031,0.007951,-0.019091,0.022477,-0.007550,0.013947,-0.000250,0.009511,0.000401,0.032076,0.016150
1.75000,0.024374,0.014734,0.009432,-0.001480,0.000453,0.010511,0.004959,0.003666,-0.007727,0.004040,0.012806,0.000821
1.75200,0.009454,0.005294,-0.008198,-0.012183,-0.004645,0.001342,0.000672,0.016696,-0.004747,-0.013774,0.013637,0.000974
1.75400,0.004670,0.032876,0.017400,0.003180,0.012669,0.005555,0.013200,-0.001021,-0.000928,0.002380,0.022805,0.021614
1.75600,-0.000324,0.018648,0.000788,0.008229,-0.000267,0.014149,0.002252,0.002305,0.006146,0.008787,0.000642,-0.008381
1.75800,0.023280,0.002698,-0.016198,-0.026009,-0.025758,-0.001939,0.017359,-0.011516,0.003065,-0.011721,0.017921,0.009402
1.76000,0.009203,0.020592,0.019377,0.007924,-0.002916,-0.009259,-0.007311,-0.012770,0.024911,0.005170,0.007902,0.007659
1.76200,0.026632,0.000910,0.014641,0.000512,0.001469,-0.015385,0.012875,-0.002424,0.001604,0.009418,0.007525,0.017183
1.76400,-0.001049,0.008358,0.005349,-0.002300,0.010029,0.001719,0.015818,-0.002098,-0.008519,0.006635,0.018667,0.000280
1.76600,-0.000645,0.003064,0.004173,-0.004344,0.006214,-0.013383,0.018820,0.011168,-0.002611,0.021128,0.011098,0.020699
1.76800,-0.006335,0.023655,0.002932,-0.023693,0.010746,0.001171,-0.007063,0.002919,-0.013795,0.012963,0.004191,0.002726
1.77000,0.020294,0.006887,-0.004364,-0.012280,0.002344,0.015208,-0.002645,-0.005597,0.015655,0.007509,0.006104,0.026940
1.77200,-0.006816,0.008524,-0.015860,-0.005559,0.009000,0.015799,-0.009770,0.013654,0.014166,0.005565,0.031654,0.005424
1.77400,-0.003436,0.010799,-0.016772,0.013616,0.013097,0.000060,0.009614,0.010530,0.025971,0.000442,-0.007032,-0.015572
1.77600,0.002547,-0.009788,0.000595,0.001797,-0.001654,-0.005587,0.015534,0.002907,0.008392,0.016521,-0.007229,-0.004169
1.77800,0.031259,0.004680,-0.008371,-0.005029,-0.003033,-0.008552,-0.000979,0.004714,0.005804,0.012205,-0.011695,-0.010121
1.78000,0.013617,0.001694,0.014866,0.000746,-0.011666,0.009593,-0.007210,0.007557,0.018551,0.028357,0.005389,0.012421
1.78200,0.008540,0.014343,-0.023923,-0.006358,0.005822,0.008868,-0.004569,0.013331,0.017204,0.007278,0.003720,0.001531
1.78400,0.006835,0.018288,0.017728,-0.007164,-0.006749,-0.004139,0.013282,0.007087,0.008878,0.011457,0.009871,0.003900
1.78600,-0.005324,-0.000239,0.003546,0.001727,-0.001004,-0.000286,0.017181,-0.000018,0.008040,0.003189,-0.002854,-0.010446
1.78800,-0.000189,-0.002361,0.010976,-0.014053,-0.001458,0.010656,0.001959,0.009803,0.014267,-0.010595,0.001691,-0.004760
1.79000,0.019081,0.004801,0.007345,0.015119,-0.000890,0.004674,0.007262,0.001960,0.018488,0.014694,0.016090,0.005523
1.79200,0.001726,0.002324,-0.001482,-0.018996,0.006420,0.012168,0.002953,-0.000411,0.005982,0.008572,0.009129,0.023288
1.79400,-0.003544,0.009594,0.009236,-0.001430,0.000299,-0.006590,-0.003020,0.011771,0.020309,-0.000456,0.010525,0.010204
1.79600,0.015355,0.008308,0.006679,0.006870,-0.009156,0.004263,-0.014912,-0.015445,-0.002857,-0.009456,0.010808,0.014934
1.79800,0.001967,0.004357,-0.000211,-0.004847,0.003989,0.007291,-0.001730,-0.003466,0.000160,0.014174,0.001360,0.019465
1.80000,0.002555,0.019501,-0.009930,-0.009194,0.007406,0.008627,0.001323,0.025009,0.006084,0.008923,-0.000198,0.021449
1.80200,0.013573,0.009787,-0.014397,0.001480,-0.002149,0.007605,0.012063,-0.003156,0.007485,0.014782,0.007119,0.001391
1.80400,-0.005769,-0.001161,-0.010704,0.007764,0.003563,-0.008611,0.002778,-0.008637,-0.027775,0.018010,0.017184,-0.010168
1.80600,-0.002385,0.007567,-0.001819,-0.010745,-0.002678,0.001142,-0.002759,0.006386,0.002848,-0.001833,0.005591,-0.012083
1.80800,0.019254,-0.012014,0.001160,0.001255,0.006592,0.006119,0.015412,-0.007058,0.004412,0.007196,0.000311,-0.001425
1.81000,0.017590,-0.001776,-0.002834,-0.004911,0.000267,0.005074,0.000631,0.007891,0.006392,0.010454,0.018909,-0.003988
1.81200,0.021134,0.000799,0.008571,-0.000545,-0.000609,-0.016201,0.018756,-0.003463,-0.002898,0.016189,0.005894,0.023378
1.81400,0.021367,0.012299,0.004401,0.005458,-0.010817,0.005069,0.004090,-0.000650,0.007448,-0.009036,0.014078,0.017177
1.81600,-0.008362,0.006634,0.017259,0.002022,-0.007974,-0.006507,0.011083,0.022264,-0.005928,0.005851,-0.002677,0.001479
1.81800,0.007597,0.004759,-0.004970,0.018754,0.000703,0.001506,0.013602,0.004122,0.002851,0.014893,-0.005238,0.011730
1.82000,0.014796,0.011797,0.000086,-0.002281,-0.014744,0.002049,0.005469,0.012642,0.006319,0.001663,-0.003229,0.003888
1.82200,0.006036,0.017369,0.001994,-0.007248,0.001293,-0.001348,0.000345,-0.017700,-0.010716,-0.006138,0.009847,0.003696
1.82400,0.006457,0.017229,-0.008303,0.008844,0.006299,-0.003415,0.017560,-0.009691,-0.005766,0.003996,0.009579,0.002860
1.82600,-0.015530,0.003447,0.001398,0.022354,0.016350,0.005284,-0.007635,0.008312,-0.005512,0.008774,0.009851,0.001348
1.82800,0.009101,0.004344,-0.003016,0.011766,0.009009,0.001788,-0.003855,0.007605,0.012744,0.016460,0.021956,0.010860
1.83000,-0.002648,0.029677,0.014748,0.003830,0.017309,-0.008607,0.001006,0.002358,0.020797,-0.001441,0.006203,0.022961
1.83200,0.017612,0.009082,0.022906,-0.019059,0.009927,0.005869,0.011268,0.007162,0.003849,0.015747,-0.000453,0.015888
1.83400,0.012343,0.026893,0.001554,-0.014947,0.011437,0.023357,-0.011851,0.014817,0.022884,0.004849,0.008642,0.021050
1.83600,0.013515,0.018606,0.025233,-0.021032,0.001944,-0.007183,0.001167,0.006938,0.040285,0.038389,0.011773,0.039954
1.83800,0.037743,0.032877,0.019488,-0.012669,0.006980,0.004391,0.007656,0.026482,0.029028,0.029456,0.043351,0.018139
1.84000,0.050007,0.042638,0.016794,-0.033584,0.019745,0.021985,0.005499,0.036086,0.043997,0.058434,0.048947,0.029157
1.84200,0.048881,0.038662,0.009875,-0.017304,0.041336,0.047082,0.033220,0.054130,0.064105,0.049886,0.052893,0.063861
1.84400,0.082594,0.083955,0.023941,-0.042723,0.028726,0.041961,0.020040,0.063911,0.072156,0.084428,0.096375,0.073244
1.84600,0.081642,0.107581,0.018838,-0.038245,0.045144,0.061873,0.054380,0.092329,0.091067,0.098284,0.120084,0.084297
1.84800,0.121403,0.115943,0.044293,-0.064909,0.057474,0.074056,0.052044,0.109186,0.118516,0.109998,0.117089,0.092219
1.85000,0.111595,0.136418,0.042284,-0.067619,0.051515,0.070596,0.062715,0.117526,0.120004,0.156969,0.143023,0.113020
1.85200,0.141075,0.151277,0.048492,-0.085993,0.070868,0.112963,0.069176,0.133320,0.127857,0.159568,0.144509,0.148190
1.85400,0.142318,0.178153,0.035967,-0.080344,0.076759,0.106327,0.054431,0.132159,0.168100,0.193917,0.169925,0.123969
1.85600,0.150960,0.184987,0.050014,-0.078534,0.068696,0.111109,0.091722,0.127614,0.193812,0.188217,0.174818,0.137996
1.85800,0.152615,0.172120,0.043208,-0.098866,0.075820,0.108560,0.057346,0.112344,0.161071,0.184743,0.176300,0.132017
1.86000,0.151080,0.163868,0.050094,-0.081257,0.079530,0.110092,0.088731,0.120871,0.153940,0.165479,0.157052,0.133944
1.86200,0.128684,0.160472,0.054921,-0.065746,0.065286,0.106731,0.074474,0.126995,0.149037,0.170027,0.148672,0.114287
1.86400,0.103367,0.155060,0.048648,-0.060363,0.054882,0.080241,0.093516,0.092478,0.126612,0.143220,0.120642,0.099206
1.86600,0.093138,0.111757,0.033208,-0.046961,0.036295,0.076169,0.069779,0.097079,0.096791,0.092674,0.120643,0.100129
1.86800,0.076150,0.107114,0.027117,-0.044024,0.028982,0.062235,0.040801,0.067130,0.099365,0.102192,0.076892,0.084821
1.87000,0.073075,0.066093,0.020660,-0.035052,0.028566,0.047829,0.042089,0.052026,0.090693,0.071826,0.067084,0.081162
1.87200,0.073139,0.057063,0.016859,-0.037840,0.035089,0.037222,0.018649,0.047437,0.066941,0.066995,0.077290,0.058424
1.87400,0.040750,0.041469,0.019312,-0.007816,0.026033,0.036716,0.022218,0.039648,0.051405,0.042686,0.027745,0.051790
1.87600,0.031881,0.025558,0.012239,-0.016797,-0.004548,0.016918,0.000087,0.024950,0.027039,0.043114,0.027973,0.028485
1.87800,0.015281,0.017210,-0.007032,-0.000143,0.010476,0.007325,0.012131,0.011930,0.012488,0.024781,0.032611,0.014660
1.88000,-0.001577,0.008424,0.022788,-0.015080,0.017961,0.006733,0.014370,0.010088,-0.002090,0.011339,0.035311,0.010719
1.88200,0.014473,0.006786,0.002036,-0.001630,0.008978,0.028551,0.004703,0.005971,0.002917,-0.002355,-0.006203,0.015026
1.88400,-0.012305,0.021316,0.010996,-0.006398,-0.008501,0.004836,0.003704,0.016834,-0.000593,0.003930,0.006551,0.003237
1.88600,-0.001512,-0.011709,-0.014579,-0.009312,0.000042,0.013404,0.025710,0.021310,0.009063,0.024552,0.004140,-0.000766
1.88800,0.026898,-0.006341,-0.002690,-0.004647,0.016421,-0.003219,0.009901,-0.000747,-0.008162,0.006950,0.005901,-0.007971
1.89000,-0.005453,-0.004254,0.010876,0.002921,0.003943,0.007223,-0.002977,0.007602,-0.002587,-0.009414,-0.003439,0.005160
1.89200,0.003778,0.013875,-0.015752,-0.003693,0.005359,-0.007529,0.004105,-0.001544,-0.008183,0.014717,-0.010659,0.012749
1.89400,-0.001444,-0.006310,-0.007777,-0.008749,-0.007142,0.004652,-0.017160,0.014779,0.011257,0.017150,-0.006807,-0.020599
1.89600,-0.003656,0.001282,0.004062,-0.006480,0.000445,0.003381,-0.014020,0.020342,-0.008428,0.005775,0.013678,-0.005350
1.89800,0.002550,0.019202,-0.001795,0.009218,0.004177,0.004135,0.008615,-0.000071,0.000633,0.012682,0.005443,0.007395
1.90000,-0.009473,0.003004,0.013144,0.007822,0.004703,-0.003338,-0.004686,0.006596,0.016870,0.003454,0.015825,-0.000605
1.90200,0.014456,-0.007186,0.002895,-0.011782,0.007853,0.007537,-0.008066,-0.005259,-0.001782,-0.011907,-0.006518,-0.006294
1.90400,0.010222,0.016569,-0.003427,-0.003963,0.003371,-0.003435,-0.001386,0.010502,0.004887,0.002055,-0.003040,0.016991
1.90600,-0.003771,0.003902,-0.009324,-0.007001,0.002155,-0.002201,0.006694,0.002773,-0.011278,-0.020209,0.012564,-0.003584
1.90800,0.017086,0.002774,-0.006666,0.004531,-0.001526,0.001825,-0.007949,0.008418,0.013415,-0.002469,0.020375,-0.003489
1.91000,0.004743,-0.013767,-0.018266,0.019966,0.015379,0.013125,-0.015656,0.004254,0.006610,0.003507,0.005473,-0.007035
1.91200,0.000599,-0.008874,-0.002573,0.002704,-0.006692,-0.001152,-0.003042,0.002092,0.011547,0.005003,0.006380,-0.012301
1.91400,-0.001486,0.010608,-0.007716,-0.005326,-0.008598,0.014888,-0.003297,-0.005398,0.008455,0.013549,0.007301,0.011825
1.91600,0.004183,0.001081,-0.003553,-0.006067,-0.004922,0.005186,0.000046,0.002695,0.008265,0.001951,-0.011383,-0.005945
1.91800,-0.009168,-0.016747,0.001855,-0.012955,-0.011810,-0.009295,0.009853,-0.001338,0.012131,0.001522,-0.002129,0.007542
1.92000,0.007904,0.003374,-0.009580,-0.005539,-0.010841,-0.001167,0.002022,0.016522,0.016195,0.009107,0.011688,0.004133
1.92200,0.029569,0.017413,0.027174,0.002842,0.005043,0.011873,0.002928,0.004752,-0.007854,0.011660,0.003435,0.009856
1.92400,-0.000393,-0.015673,0.005711,0.010682,-0.011916,-0.008398,-0.002011,-0.000883,-0.015051,0.019745,0.012117,-0.004453
1.92600,-0.016364,0.005632,0.020502,0.007330,0.012382,-0.008155,0.003286,-0.013463,0.021665,0.007819,-0.019101,-0.016824
1.92800,0.006488,0.003323,-0.002466,0.005223,0.020884,0.004875,-0.017111,-0.000106,-0.011290,-0.005986,0.005137,-0.000114
1.93000,-0.009025,0.001593,-0.007574,0.004345,-0.001685,0.005037,-0.001830,0.008866,0.000349,0.001809,-0.003883,0.002905
1.93200,-0.016217,0.028418,-0.006289,0.000016,-0.004071,-0.003827,0.004799,-0.003807,-0.002663,-0.011942,-0.007561,-0.010290
1.93400,0.019448,-0.011679,-0.010270,0.000945,0.014893,-0.015952,-0.014769,0.002475,0.004907,-0.012405,-0.016419,-0.008287
1.93600,0.008822,0.001141,0.007862,-0.002063,0.000224,0.007051,-0.000532,0.003506,-0.007670,-0.004346,0.006186,-0.001156
1.93800,-0.006206,0.008061,0.005826,-0.001070,-0.007086,0.009819,0.025569,-0.007139,-0.014043,-0.006224,-0.007908,-0.011470
1.94000,-0.010629,0.009882,0.008911,0.013805,0.007917,-0.003985,0.011393,-0.005104,-0.002183,-0.010243,0.013608,0.011203
1.94200,-0.003515,-0.001783,0.000622,0.001007,0.008846,0.001389,0.004496,-0.014060,-0.001805,-0.016530,0.019085,0.014974
1.94400,0.008199,0.012348,0.020259,0.008386,-0.015569,-0.001401,-0.023100,-0.007275,-0.011309,0.001224,0.005068,-0.008333
1.94600,-0.001869,0.003941,-0.001403,-0.002806,-0.023752,-0.003823,0.008289,0.003365,-0.013789,-0.001516,0.003741,-0.008877
1.94800,0.007619,-0.006956,-0.003197,-0.002117,0.022494,-0.002684,-0.005397,0.007874,-0.003751,0.003063,-0.021527,0.003778
1.95000,0.000617,-0.011914,0.013647,-0.003400,-0.001763,-0.012661,-0.015976,-0.005018,-0.014328,0.005966,0.009633,-0.005605
1.95200,-0.015337,-0.003019,-0.010554,0.000664,0.001956,-0.003834,0.000967,0.011011,0.017865,-0.004232,0.008093,-0.001700
1.95400,-0.009888,0.013663,0.003936,0.000407,0.003661,-0.001252,-0.010339,0.018299,0.009756,0.003544,0.010456,0.013473
1.95600,-0.001373,0.006650,-0.003262,0.005462,-0.002459,0.024672,-0.003415,0.005655,0.005336,-0.002498,0.010108,-0.000266
1.95800,-0.003545,0.000737,-0.007548,0.011006,0.006310,0.010116,-0.013380,0.003162,-0.007036,0.001654,0.013431,0.003093
1.96000,-0.001230,0.011867,0.010050,0.017549,-0.018569,0.003536,-0.004061,-0.008330,0.001754,-0.010890,-0.021694,-0.008544
1.96200,-0.002132,0.019279,-0.007288,-0.012592,-0.019759,-0.003285,-0.002322,0.001856,-0.013907,-0.006943,-0.022085,0.002118
1.96400,-0.015258,-0.026905,0.011512,0.004173,0.003508,0.003703,-0.010299,0.011071,-0.009977,0.019739,0.002799,-0.018048
1.96600,0.009081,0.020244,-0.002649,0.009817,-0.002141,-0.006106,-0.025781,0.012666,-0.003988,0.004377,-0.010840,-0.008725
1.96800,0.011533,-0.003393,-0.004120,-0.013416,0.002070,0.007943,-0.004581,-0.001599,-0.011784,0.014571,-0.005726,-0.001219
1.97000,0.017191,-0.001829,-0.015645,-0.010037,-0.003621,0.018007,0.002271,-0.001987,0.008724,0.013595,-0.007159,0.014717
1.97200,0.008946,0.004940,-0.023823,0.001279,0.013999,-0.002588,0.023260,0.001017,-0.009804,0.006474,0.003405,0.008716
1.97400,-0.001895,0.013543,-0.005635,0.000700,-0.012525,-0.007870,0.002123,-0.006326,-0.004115,-0.001575,0.002996,0.008065
1.97600,0.008102,0.010776,0.002052,-0.006082,-0.015947,-0.003307,-0.007935,-0.018024,0.017062,-0.018056,0.004049,0.005963
1.97800,-0.001947,0.026656,0.000229,-0.008330,0.017887,-0.007847,-0.014384,-0.009822,-0.006017,0.001031,0.003919,-0.015004
1.98000,0.004125,0.023313,-0.007151,-0.002003,0.007210,0.012565,-0.006547,-0.009266,-0.009577,0.011875,0.009806,-0.021404
1.98200,-0.020682,-0.011352,-0.014969,0.003249,0.002597,0.020541,0.008513,0.002102,0.013086,-0.007769,-0.013022,0.001285
1.98400,0.011546,-0.014083,0.009711,0.007272,-0.004231,0.003108,-0.001770,0.002573,0.010394,-0.005647,0.012845,0.010743
1.98600,0.013390,-0.015169,-0.017459,0.004391,-0.004065,-0.004071,-0.005569,-0.009986,0.001612,-0.002199,-0.001960,0.008816
1.98800,-0.003493,0.021253,-0.019488,0.020445,-0.009852,0.011993,0.013859,0.007426,0.016780,0.009337,-0.008352,0.011582
1.99000,0.028393,0.013693,-0.011042,-0.015698,0.011231,0.015072,0.020358,0.020393,0.023274,0.000115,0.041475,0.016408
1.99200,0.040310,0.032763,0.010296,-0.017080,0.031063,0.038091,0.023546,0.047957,0.030062,0.043813,0.030719,0.043172
1.99400,0.056946,0.075066,0.038964,-0.052530,0.049213,0.043954,0.027801,0.030238,0.058058,0.045621,0.064324,0.052039
1.99600,0.115248,0.107802,0.047589,-0.041445,0.067404,0.067012,0.060876,0.069496,0.093049,0.115146,0.108029,0.079388
1.99800,0.152830,0.187800,0.054945,-0.088122,0.066226,0.127210,0.104570,0.140312,0.168475,0.208711,0.180844,0.142362
